Data from printpreto_Reflection_00002.txt Node
Date: Thu Apr 11 13:56:17 AEST 2024
User: uqkchene_local
Spectrometer: USB4E02642
Trigger mode: 4
Integration Time (sec): 2.541000E-2
Scans to average: 101
Electric dark correction enabled: true
Nonlinearity correction enabled: false
Boxcar width: 10
XAxis mode: Wavelengths
Number of Pixels in Spectrum: 3648
>>>>>Begin Spectral Data<<<<<
179.217	89.91936693
179.432	93.37386018
179.647	92.92572143
179.862	85.18159064
180.077	94.26656739
180.293	96.40802911
180.508	84.66792463
180.723	77.97588725
180.938	60.43754903
181.153	38.54234151
181.368	34.62835663
181.583	25.98945472
181.798	17.04193555
182.013	13.95791142
182.228	9.7945216
182.443	6.8390781
182.658	7.4884288
182.873	6.86459768
183.088	8.11434103
183.303	4.67029773
183.518	3.90291439
183.733	2.61317825
183.948	1.30090863
184.162	2.36310202
184.377	2.459887
184.592	1.1920821
184.807	0.86741226
185.022	1.06624575
185.237	1.55969051
185.452	-0.5331667
185.667	-0.60683472
185.882	-1.66239305
186.096	-0.71824616
186.311	-0.96186087
186.526	-2.24904032
186.741	-3.04923315
186.956	-3.24057518
187.17	-3.83566689
187.385	-3.66934106
187.6	-5.01688623
187.815	-3.91485022
188.03	-5.25335836
188.244	-3.56712142
188.459	-3.91113557
188.674	-5.346188
188.889	-6.24634388
189.103	-6.73632645
189.318	-5.93928433
189.533	-6.25728023
189.747	-6.3855044
189.962	-5.61860503
190.177	-6.07162484
190.391	-5.93540493
190.606	-7.24500607
190.821	-6.16827904
191.035	-6.86461878
191.25	-7.187644
191.465	-8.5345048
191.679	-7.66378245
191.894	-8.52986272
192.109	-8.95219656
192.323	-9.45932796
192.538	-10.00366681
192.752	-11.70791599
192.967	-12.27147926
193.181	-11.63230517
193.396	-11.16107994
193.611	-9.96092261
193.825	-10.53072611
194.04	-10.09513013
194.254	-10.50515154
194.469	-11.04902769
194.683	-11.05044188
194.898	-10.5446327
195.112	-11.56356628
195.327	-12.38179008
195.541	-11.38471874
195.756	-11.50580471
195.97	-8.66022022
196.184	-9.16082949
196.399	-8.38062387
196.613	-7.8065087
196.828	-7.28923489
197.042	-5.15787717
197.257	-4.58975039
197.471	-4.88080751
197.685	-5.14374288
197.9	-4.46220179
198.114	-3.89219621
198.328	-4.373101
198.543	-4.56205388
198.757	-4.79572548
198.971	-4.98197016
199.186	-3.44174313
199.4	-5.08450364
199.614	-3.98765748
199.829	-4.28928742
200.043	-4.01773411
200.257	-4.5118612
200.471	-6.17697227
200.686	-5.26090191
200.9	-6.2144853
201.114	-6.52937631
201.328	-6.64509572
201.543	-8.28655387
201.757	-8.01810379
201.971	-8.18500896
202.185	-8.14476011
202.399	-9.95010198
202.614	-11.69940441
202.828	-10.9519883
203.042	-10.45498645
203.256	-9.98862558
203.47	-9.98753436
203.684	-10.69183995
203.899	-10.23107537
204.113	-11.06828279
204.327	-10.26512681
204.541	-10.7678349
204.755	-9.19251652
204.969	-9.35658981
205.183	-9.00118947
205.397	-8.93514843
205.611	-7.59366851
205.825	-7.24683714
206.039	-7.24709097
206.253	-6.97138233
206.467	-6.30295606
206.681	-7.27770018
206.895	-6.58246238
207.109	-5.46666857
207.323	-5.48201349
207.537	-6.08618837
207.751	-5.30035842
207.965	-4.17605896
208.179	-4.78764044
208.393	-4.76353234
208.607	-5.84888431
208.821	-5.6972188
209.035	-5.21454569
209.249	-5.43556332
209.463	-4.96222993
209.677	-5.93546717
209.891	-4.95809571
210.104	-6.68278516
210.318	-6.94007482
210.532	-7.33412613
210.746	-7.29501986
210.96	-7.2351068
211.174	-6.22943447
211.387	-5.89617349
211.601	-6.22677818
211.815	-7.14361557
212.029	-8.6008922
212.243	-9.75846916
212.456	-11.14027136
212.67	-11.22699531
212.884	-10.73267829
213.098	-9.18917142
213.311	-8.76193691
213.525	-8.88736244
213.739	-8.78667575
213.953	-8.81770841
214.166	-9.45807556
214.38	-10.15987838
214.594	-8.11208691
214.807	-8.09780575
215.021	-6.98459267
215.235	-7.40802933
215.448	-7.18618409
215.662	-7.1377407
215.876	-7.81564174
216.089	-7.58048998
216.303	-6.87782891
216.516	-6.02526175
216.73	-5.58272951
216.944	-4.82732666
217.157	-4.43241886
217.371	-4.79976127
217.584	-4.81886519
217.798	-5.20790248
218.011	-6.49322164
218.225	-6.86844897
218.439	-8.04255219
218.652	-7.61644325
218.866	-7.39277467
219.079	-8.51506298
219.293	-8.61791761
219.506	-8.21300698
219.719	-8.29658924
219.933	-8.01772408
220.146	-8.83639263
220.36	-7.82257589
220.573	-7.11993446
220.787	-7.26548557
221	-5.27085733
221.214	-4.33217826
221.427	-6.16236379
221.64	-7.63000949
221.854	-7.85153333
222.067	-8.00187579
222.28	-8.58755345
222.494	-8.47162711
222.707	-8.36838451
222.92	-7.55497759
223.134	-7.35505521
223.347	-8.19186849
223.56	-7.38781394
223.774	-6.49016661
223.987	-5.58210318
224.2	-6.22533135
224.414	-6.703048
224.627	-5.48106997
224.84	-5.81600916
225.053	-5.90178817
225.267	-5.68010125
225.48	-7.64797954
225.693	-8.25068682
225.906	-5.77295706
226.119	-5.12780542
226.333	-4.88024328
226.546	-5.04189938
226.759	-5.46991459
226.972	-4.03020239
227.185	-4.67777635
227.398	-4.88660369
227.612	-5.67932969
227.825	-5.05027453
228.038	-5.50530051
228.251	-6.89173864
228.464	-8.26966333
228.677	-7.80120825
228.89	-5.92851778
229.103	-6.3493351
229.316	-6.37699422
229.529	-6.88032242
229.743	-7.27898562
229.956	-7.11034211
230.169	-6.67651456
230.382	-7.74773721
230.595	-7.38083816
230.808	-7.07743435
231.021	-7.06342198
231.234	-5.60521505
231.447	-5.38349966
231.66	-4.42950996
231.872	-4.36030081
232.085	-3.8519356
232.298	-3.84275027
232.511	-4.35682416
232.724	-3.90018334
232.937	-3.95759657
233.15	-4.0296815
233.363	-5.83148376
233.576	-6.54754913
233.789	-6.9904351
234.002	-7.18588434
234.214	-7.02392003
234.427	-6.65792106
234.64	-6.94748287
234.853	-6.40920723
235.066	-6.15574103
235.279	-7.27878274
235.491	-6.81367269
235.704	-8.43986254
235.917	-9.57807964
236.13	-10.02329642
236.342	-10.11030814
236.555	-9.85433158
236.768	-10.29753696
236.981	-10.55622103
237.193	-11.29053163
237.406	-10.33120821
237.619	-8.4823018
237.832	-7.92354368
238.044	-6.80946777
238.257	-5.95953339
238.47	-5.37581015
238.682	-5.14151812
238.895	-6.21384852
239.108	-5.1945284
239.32	-5.58805531
239.533	-5.39599652
239.746	-4.43500605
239.958	-5.20896426
240.171	-4.01747311
240.383	-3.71193363
240.596	-3.65668325
240.808	-3.39068592
241.021	-4.11407239
241.234	-4.18753425
241.446	-3.53714511
241.659	-2.5801319
241.871	-2.92351844
242.084	-5.0560162
242.296	-5.67772823
242.509	-6.61445259
242.721	-6.36903252
242.934	-5.62892717
243.146	-6.71311066
243.359	-5.604663
243.571	-6.93258713
243.784	-6.90663696
243.996	-6.99670647
244.208	-7.73970576
244.421	-8.03846938
244.633	-7.67785003
244.846	-7.9992443
245.058	-7.98990424
245.27	-8.43416416
245.483	-7.76256687
245.695	-7.59990612
245.907	-7.39164301
246.12	-7.02939635
246.332	-7.16914017
246.544	-5.93726052
246.757	-5.38583503
246.969	-4.44998994
247.181	-4.37486999
247.394	-5.97109123
247.606	-5.17858521
247.818	-5.50094837
248.03	-5.84739602
248.243	-5.72862048
248.455	-6.87053662
248.667	-6.18947074
248.879	-5.09095074
249.092	-7.06908442
249.304	-6.72768785
249.516	-7.4891475
249.728	-6.81733091
249.94	-7.09441709
250.153	-7.40777181
250.365	-8.08346549
250.577	-7.49091233
250.789	-6.69627854
251.001	-7.61994548
251.213	-8.40154376
251.425	-8.0517714
251.637	-8.86327782
251.85	-8.12273121
252.062	-7.75210144
252.274	-7.23916643
252.486	-6.77131351
252.698	-7.03923462
252.91	-7.07117025
253.122	-7.22553825
253.334	-8.01417851
253.546	-6.08213447
253.758	-6.12357128
253.97	-5.16755562
254.182	-5.05540679
254.394	-5.87812381
254.606	-5.21471319
254.818	-5.0118373
255.03	-5.75464937
255.242	-6.74911619
255.454	-6.18589375
255.666	-6.13818982
255.877	-7.25517449
256.089	-7.49997006
256.301	-7.82797913
256.513	-9.18115051
256.725	-9.02132599
256.937	-9.40632103
257.149	-9.55379552
257.361	-8.10172951
257.572	-7.75502764
257.784	-6.34740788
257.996	-7.25660101
258.208	-7.63367358
258.42	-7.91946255
258.631	-8.62838679
258.843	-6.37111571
259.055	-6.5445223
259.267	-6.57066455
259.479	-6.97025181
259.69	-7.06790742
259.902	-7.12420316
260.114	-7.05540747
260.325	-6.70567879
260.537	-5.86894916
260.749	-5.47371668
260.961	-4.80205068
261.172	-5.95950878
261.384	-5.44075557
261.596	-4.73451141
261.807	-5.05781734
262.019	-5.51399904
262.23	-6.58078141
262.442	-7.1128888
262.654	-7.60383754
262.865	-7.71175969
263.077	-7.13184198
263.288	-8.15637562
263.5	-8.85190738
263.712	-8.27851818
263.923	-8.10443793
264.135	-7.76425958
264.346	-7.87086538
264.558	-8.58523267
264.769	-9.94824457
264.981	-10.1432816
265.192	-11.35355781
265.404	-10.92610158
265.615	-10.5274336
265.827	-10.26485224
266.038	-9.65766925
266.25	-9.21933362
266.461	-10.08021142
266.673	-10.47414579
266.884	-9.6281637
267.095	-8.55054909
267.307	-8.23163279
267.518	-8.70062168
267.73	-8.53200139
267.941	-7.95905162
268.152	-8.73774224
268.364	-8.65290281
268.575	-8.57373648
268.786	-8.01767073
268.998	-7.27750118
269.209	-6.37470117
269.42	-6.05454232
269.632	-4.98804475
269.843	-3.9135411
270.054	-3.33423794
270.265	-4.47962754
270.477	-4.99874187
270.688	-5.01276733
270.899	-3.39687236
271.11	-2.87514837
271.322	-2.8459664
271.533	-2.72933054
271.744	-3.31892058
271.955	-3.09517509
272.166	-3.17988296
272.378	-3.89011346
272.589	-3.09167083
272.8	-3.53632144
273.011	-3.8528149
273.222	-4.18405458
273.433	-4.60884593
273.644	-3.95187662
273.856	-4.32421077
274.067	-5.56306437
274.278	-6.44655979
274.489	-6.56342664
274.7	-6.48901497
274.911	-6.80257028
275.122	-7.26451991
275.333	-8.39777087
275.544	-8.34835318
275.755	-8.63796626
275.966	-8.69080896
276.177	-9.36933539
276.388	-9.71377988
276.599	-9.40756281
276.81	-8.54521196
277.021	-8.76366678
277.232	-8.44834461
277.443	-7.90812317
277.654	-8.36529876
277.865	-7.83752461
278.076	-9.27285014
278.287	-9.50310538
278.497	-8.06639899
278.708	-8.14655271
278.919	-8.0610996
279.13	-7.75696203
279.341	-7.18867918
279.552	-6.32334168
279.763	-5.41763761
279.973	-5.54429615
280.184	-5.31195838
280.395	-5.32738816
280.606	-4.58758356
280.817	-4.76412424
281.027	-5.47023129
281.238	-5.90721011
281.449	-6.30841785
281.66	-6.4120223
281.87	-7.06663595
282.081	-6.67603455
282.292	-6.10443223
282.503	-5.28753722
282.713	-4.96160479
282.924	-5.33744397
283.135	-5.13327662
283.345	-4.89749744
283.556	-4.62242132
283.767	-5.47073066
283.977	-5.46926959
284.188	-6.19961572
284.399	-5.97857483
284.609	-6.39721217
284.82	-6.06046187
285.03	-6.37187013
285.241	-5.67132457
285.451	-5.94160984
285.662	-5.5150985
285.873	-5.04287518
286.083	-4.73689518
286.294	-4.39598784
286.504	-4.65124204
286.715	-5.34336128
286.925	-4.54343539
287.136	-4.95764465
287.346	-4.8721515
287.557	-5.27003133
287.767	-5.99130268
287.978	-6.34876056
288.188	-5.59075621
288.399	-6.12960621
288.609	-4.98143294
288.819	-5.18473952
289.03	-4.59701816
289.24	-4.65695161
289.451	-4.08758459
289.661	-3.94092854
289.871	-3.29449342
290.082	-3.05373233
290.292	-3.48167607
290.502	-3.34106188
290.713	-2.80206237
290.923	-2.84764834
291.133	-2.26270173
291.344	-2.27522216
291.554	-2.05933327
291.764	-1.6214585
291.974	-0.91259096
292.185	-0.50295107
292.395	-0.61869626
292.605	-0.74140614
292.815	-0.56803385
293.026	-1.12173864
293.236	-0.59007971
293.446	-0.37618491
293.656	-0.38743217
293.866	-0.19781321
294.077	-0.41083836
294.287	-0.44005408
294.497	-0.63292959
294.707	-0.16796042
294.917	0.12183134
295.127	-0.01776402
295.337	0.45844588
295.548	0.47147861
295.758	0.48256851
295.968	0.85620482
296.178	0.86604954
296.388	0.90804599
296.598	1.06514221
296.808	1.28131907
297.018	1.36274346
297.228	1.61146604
297.438	1.74987383
297.648	1.78720939
297.858	1.89704119
298.068	1.88649124
298.278	1.96614442
298.488	2.19283446
298.698	2.3592312
298.908	2.49270372
299.118	2.51795096
299.328	2.51981723
299.538	2.58580638
299.748	2.57374415
299.957	2.54877522
300.167	2.58521873
300.377	2.44626324
300.587	2.45753724
300.797	2.4563589
301.007	2.48167385
301.217	2.55548317
301.426	2.63059664
301.636	2.63962142
301.846	2.67433072
302.056	2.66312381
302.266	2.67320731
302.475	2.71738552
302.685	2.69784104
302.895	2.70816207
303.105	2.69533729
303.314	2.6991128
303.524	2.68763345
303.734	2.69543521
303.944	2.67484318
304.153	2.67128106
304.363	2.73203845
304.573	2.71748844
304.782	2.78189488
304.992	2.79941782
305.202	2.81426531
305.411	2.79731282
305.621	2.79747145
305.831	2.78077639
306.04	2.77873846
306.25	2.80456624
306.459	2.81752956
306.669	2.82194188
306.878	2.84472167
307.088	2.84850962
307.298	2.83452882
307.507	2.83267921
307.717	2.83251021
307.926	2.84585115
308.136	2.85542599
308.345	2.87192522
308.555	2.88544528
308.764	2.87444487
308.974	2.88168733
309.183	2.86587236
309.392	2.86287244
309.602	2.84293412
309.811	2.86242139
310.021	2.83876927
310.23	2.84994797
310.44	2.84355016
310.649	2.83210774
310.858	2.82964632
311.068	2.82221842
311.277	2.82018185
311.486	2.8252116
311.696	2.84042781
311.905	2.84586061
312.114	2.85856079
312.324	2.85608631
312.533	2.84746757
312.742	2.84764113
312.952	2.84738174
313.161	2.85333056
313.37	2.85922056
313.579	2.86622222
313.789	2.86688809
313.998	2.87112836
314.207	2.86814565
314.416	2.87720067
314.625	2.87281161
314.835	2.87523226
315.044	2.872123
315.253	2.87935238
315.462	2.87183702
315.671	2.87118014
315.88	2.87174708
316.09	2.86307349
316.299	2.85765128
316.508	2.84285649
316.717	2.84247748
316.926	2.84175441
317.135	2.83585703
317.344	2.82821816
317.553	2.82127034
317.762	2.82481922
317.971	2.82332196
318.18	2.8243408
318.389	2.83326465
318.598	2.82687092
318.807	2.83565771
319.016	2.82691783
319.225	2.82218562
319.434	2.81790829
319.643	2.80869595
319.852	2.81596865
320.061	2.81384424
320.27	2.80993144
320.479	2.80700442
320.688	2.8072342
320.897	2.81417764
321.105	2.81090725
321.314	2.81237181
321.523	2.81439857
321.732	2.81526082
321.941	2.82233031
322.15	2.81241903
322.359	2.81137099
322.567	2.81089464
322.776	2.80489698
322.985	2.80404254
323.194	2.79696521
323.403	2.79886002
323.611	2.79754095
323.82	2.79648959
324.029	2.79566876
324.237	2.79306512
324.446	2.78718493
324.655	2.78796194
324.864	2.78615353
325.072	2.78345695
325.281	2.78133126
325.49	2.78333369
325.698	2.78097472
325.907	2.78456547
326.116	2.77991571
326.324	2.77523562
326.533	2.77889443
326.741	2.77850143
326.95	2.77540107
327.159	2.77948768
327.367	2.78379668
327.576	2.78176374
327.784	2.7814773
327.993	2.77982334
328.201	2.78153994
328.41	2.78015606
328.618	2.78401429
328.827	2.78918912
329.035	2.78939207
329.244	2.78887262
329.452	2.79086425
329.661	2.79249967
329.869	2.79102378
330.078	2.79383616
330.286	2.78926678
330.495	2.79451873
330.703	2.7927228
330.911	2.79186798
331.12	2.78866341
331.328	2.78904405
331.537	2.78023642
331.745	2.77871363
331.953	2.78558497
332.162	2.78846666
332.37	2.79277371
332.578	2.79503178
332.787	2.79878972
332.995	2.79331224
333.203	2.79020798
333.411	2.7860039
333.62	2.78855926
333.828	2.79083549
334.036	2.78600812
334.244	2.78517536
334.453	2.77984375
334.661	2.78104423
334.869	2.77695856
335.077	2.77841185
335.285	2.77842753
335.494	2.77888898
335.702	2.78050076
335.91	2.78850958
336.118	2.78526305
336.326	2.78153189
336.534	2.7786746
336.742	2.77487586
336.951	2.77372485
337.159	2.76907811
337.367	2.76831447
337.575	2.76937534
337.783	2.7716306
337.991	2.77106869
338.199	2.76944036
338.407	2.77194747
338.615	2.77316442
338.823	2.7744805
339.031	2.76890309
339.239	2.7723842
339.447	2.77494069
339.655	2.77489462
339.863	2.77788364
340.071	2.77312103
340.279	2.77312256
340.487	2.77296225
340.695	2.77097864
340.903	2.76782042
341.11	2.76953209
341.318	2.76494583
341.526	2.7648186
341.734	2.76556731
341.942	2.76421753
342.15	2.76505695
342.358	2.76120785
342.565	2.75934324
342.773	2.75867501
342.981	2.75783199
343.189	2.75840021
343.397	2.76347086
343.604	2.76186952
343.812	2.7602461
344.02	2.75803106
344.228	2.75612769
344.435	2.75912335
344.643	2.7536696
344.851	2.75470059
345.058	2.75554832
345.266	2.75852409
345.474	2.75819445
345.681	2.76102896
345.889	2.76165191
346.097	2.76075031
346.304	2.75690634
346.512	2.75645507
346.72	2.75766871
346.927	2.75649345
347.135	2.75312119
347.342	2.75153182
347.55	2.74958466
347.758	2.74752928
347.965	2.74798369
348.173	2.74598055
348.38	2.74938908
348.588	2.75207198
348.795	2.75238307
349.003	2.75417193
349.21	2.75162575
349.418	2.75354971
349.625	2.75156158
349.833	2.75197077
350.04	2.75112708
350.247	2.7531035
350.455	2.75065677
350.662	2.7526715
350.87	2.75522202
351.077	2.76112604
351.284	2.76133821
351.492	2.7658236
351.699	2.76507611
351.906	2.76534517
352.114	2.76256244
352.321	2.75880341
352.528	2.75173227
352.736	2.75155245
352.943	2.75261859
353.15	2.75058711
353.358	2.75045932
353.565	2.75210795
353.772	2.74891092
353.979	2.75176327
354.187	2.74717447
354.394	2.74631856
354.601	2.74655231
354.808	2.7455611
355.015	2.74962116
355.223	2.74523274
355.43	2.73992194
355.637	2.74051504
355.844	2.74046568
356.051	2.74128026
356.258	2.74199498
356.465	2.74718012
356.673	2.74620023
356.88	2.752366
357.087	2.74742036
357.294	2.744509
357.501	2.74128448
357.708	2.74329861
357.915	2.74283233
358.122	2.74652721
358.329	2.74473056
358.536	2.74614509
358.743	2.74463242
358.95	2.7457762
359.157	2.74769916
359.364	2.74241539
359.571	2.74388765
359.778	2.7450381
359.985	2.74344488
360.192	2.74405502
360.399	2.74679115
360.606	2.7477715
360.812	2.74639573
361.019	2.75056908
361.226	2.74819891
361.433	2.75069523
361.64	2.74854469
361.847	2.75025131
362.054	2.74643105
362.26	2.74965718
362.467	2.74757937
362.674	2.74803664
362.881	2.74888744
363.088	2.74933953
363.294	2.74731855
363.501	2.74412954
363.708	2.7441489
363.915	2.74456724
364.121	2.74399983
364.328	2.7449984
364.535	2.74389536
364.741	2.74452134
364.948	2.74245635
365.155	2.74217684
365.361	2.74072659
365.568	2.74100158
365.775	2.73933483
365.981	2.74201236
366.188	2.74230635
366.395	2.74475434
366.601	2.73955873
366.808	2.73535021
367.014	2.73486851
367.221	2.73425156
367.427	2.73591488
367.634	2.73502046
367.84	2.74068873
368.047	2.7436025
368.254	2.74575776
368.46	2.74344781
368.667	2.73964871
368.873	2.74161918
369.079	2.73914424
369.286	2.7393711
369.492	2.74059966
369.699	2.73730239
369.905	2.73631783
370.112	2.73915115
370.318	2.73446678
370.524	2.73669188
370.731	2.73705845
370.937	2.73928628
371.144	2.74536152
371.35	2.74510194
371.556	2.74694637
371.763	2.74719015
371.969	2.74805797
372.175	2.74647738
372.381	2.74477202
372.588	2.74105205
372.794	2.74329506
373	2.74865566
373.206	2.7459578
373.413	2.74708245
373.619	2.74841486
373.825	2.74709947
374.031	2.74824661
374.238	2.74748446
374.444	2.74471702
374.65	2.74903995
374.856	2.74944661
375.062	2.748232
375.268	2.74580894
375.475	2.74357168
375.681	2.74547493
375.887	2.74116132
376.093	2.74124573
376.299	2.7356512
376.505	2.73484894
376.711	2.7349312
376.917	2.73810967
377.123	2.737966
377.329	2.73896911
377.535	2.73677672
377.741	2.73876682
377.947	2.73432871
378.153	2.73303004
378.359	2.73501402
378.565	2.73623832
378.771	2.74048192
378.977	2.74050103
379.183	2.73897739
379.389	2.73937935
379.595	2.74102962
379.801	2.7438661
380.007	2.74118071
380.213	2.74205952
380.418	2.74291976
380.624	2.74797948
380.83	2.75123295
381.036	2.75220849
381.242	2.74655775
381.448	2.74561218
381.653	2.73980149
381.859	2.74180045
382.065	2.73889369
382.271	2.74318894
382.476	2.7433287
382.682	2.74358629
382.888	2.74263908
383.094	2.73934177
383.299	2.73701014
383.505	2.73693543
383.711	2.73965003
383.916	2.73933317
384.122	2.7372368
384.328	2.73689993
384.533	2.73991368
384.739	2.73704827
384.945	2.73990472
385.15	2.73760009
385.356	2.7326379
385.562	2.73526711
385.767	2.73488619
385.973	2.74043028
386.178	2.74087592
386.384	2.73471126
386.589	2.73651737
386.795	2.73576635
387	2.73645859
387.206	2.73797065
387.411	2.74030553
387.617	2.74352968
387.822	2.74340704
388.028	2.74213197
388.233	2.74091472
388.439	2.74021214
388.644	2.74007259
388.85	2.73770077
389.055	2.74083794
389.26	2.74423688
389.466	2.74531584
389.671	2.74901561
389.877	2.75061308
390.082	2.75019596
390.287	2.75097726
390.493	2.7515527
390.698	2.75746957
390.903	2.75624849
391.109	2.75909735
391.314	2.76065277
391.519	2.76362806
391.724	2.76492453
391.93	2.7620446
392.135	2.7590429
392.34	2.76000088
392.545	2.76323641
392.751	2.76490217
392.956	2.76667944
393.161	2.76643019
393.366	2.76440802
393.571	2.76085996
393.776	2.76036085
393.982	2.76127075
394.187	2.75858872
394.392	2.75993392
394.597	2.75628666
394.802	2.7567415
395.007	2.75912189
395.212	2.75852689
395.417	2.75864533
395.622	2.75790488
395.827	2.75736213
396.032	2.75823615
396.237	2.76043155
396.442	2.76146012
396.647	2.76170312
396.852	2.76299439
397.057	2.76250035
397.262	2.76389272
397.467	2.76807099
397.672	2.76769648
397.877	2.76768789
398.082	2.76823477
398.287	2.76988773
398.492	2.77076003
398.697	2.76932657
398.902	2.77261185
399.107	2.76901535
399.311	2.76840761
399.516	2.77149846
399.721	2.77031012
399.926	2.76994718
400.131	2.77156168
400.336	2.76957967
400.54	2.76906343
400.745	2.77268167
400.95	2.77152151
401.155	2.77198561
401.359	2.7717162
401.564	2.7737714
401.769	2.7730438
401.974	2.77704014
402.178	2.77961411
402.383	2.77925511
402.588	2.7785489
402.792	2.78027585
402.997	2.78310758
403.202	2.78053997
403.406	2.78519329
403.611	2.78646192
403.815	2.78519226
404.02	2.7864452
404.225	2.78803163
404.429	2.7864654
404.634	2.78524915
404.838	2.78372816
405.043	2.78380522
405.247	2.78505567
405.452	2.78433462
405.656	2.78787646
405.861	2.78719634
406.065	2.78725707
406.27	2.78540291
406.474	2.7832384
406.679	2.78736239
406.883	2.78642042
407.088	2.78671584
407.292	2.78483789
407.497	2.78586121
407.701	2.78333929
407.905	2.78308208
408.11	2.78242223
408.314	2.78349613
408.518	2.78286916
408.723	2.78294748
408.927	2.78536697
409.131	2.78844459
409.336	2.78834096
409.54	2.78871126
409.744	2.78717646
409.949	2.78389432
410.153	2.78478578
410.357	2.78459258
410.561	2.78225353
410.766	2.7823365
410.97	2.77887108
411.174	2.77944754
411.378	2.77889987
411.582	2.78203373
411.787	2.78422596
411.991	2.78708997
412.195	2.78664198
412.399	2.7878338
412.603	2.78662881
412.807	2.78628659
413.011	2.78639386
413.215	2.78576557
413.419	2.78483109
413.624	2.78370699
413.828	2.7845983
414.032	2.78628071
414.236	2.78966858
414.44	2.78831502
414.644	2.78777621
414.848	2.79169616
415.052	2.79228837
415.256	2.79345329
415.46	2.79470669
415.664	2.79442548
415.868	2.7928184
416.072	2.79225402
416.275	2.79170903
416.479	2.79182456
416.683	2.79160396
416.887	2.79364323
417.091	2.79610927
417.295	2.79538767
417.499	2.79685273
417.703	2.79779617
417.906	2.799532
418.11	2.79864125
418.314	2.80132624
418.518	2.80126634
418.722	2.80215442
418.925	2.80220347
419.129	2.80400893
419.333	2.80542723
419.537	2.80592724
419.74	2.80639388
419.944	2.8076009
420.148	2.80837432
420.352	2.80921664
420.555	2.80919241
420.759	2.80913988
420.963	2.80931053
421.166	2.80890128
421.37	2.8075316
421.573	2.81278613
421.777	2.81112269
421.981	2.81203119
422.184	2.8134157
422.388	2.81435044
422.591	2.81350476
422.795	2.81332616
422.999	2.81207058
423.202	2.8129492
423.406	2.81111938
423.609	2.80986469
423.813	2.81121985
424.016	2.81363676
424.22	2.81487155
424.423	2.81795064
424.627	2.81640251
424.83	2.8181592
425.033	2.81731811
425.237	2.81863041
425.44	2.81704318
425.644	2.82001764
425.847	2.81810119
426.05	2.81886004
426.254	2.8188022
426.457	2.81527747
426.66	2.81558514
426.864	2.81724915
427.067	2.81744416
427.27	2.81903545
427.474	2.81973548
427.677	2.82075394
427.88	2.82304887
428.084	2.82233096
428.287	2.81792206
428.49	2.81834234
428.693	2.81723047
428.896	2.81815445
429.1	2.81607548
429.303	2.81687975
429.506	2.81594951
429.709	2.81946032
429.912	2.81803636
430.116	2.81882319
430.319	2.81862917
430.522	2.82194019
430.725	2.82476171
430.928	2.82620586
431.131	2.82595601
431.334	2.8263772
431.537	2.82934499
431.74	2.83157483
431.943	2.83307831
432.146	2.83211515
432.349	2.83326844
432.552	2.83430291
432.755	2.83549765
432.958	2.83326612
433.161	2.83373226
433.364	2.83711855
433.567	2.83987249
433.77	2.84135267
433.973	2.842227
434.176	2.84280213
434.379	2.84163105
434.582	2.84520456
434.785	2.84426035
434.988	2.84575736
435.19	2.84460725
435.393	2.8446078
435.596	2.844954
435.799	2.84463804
436.002	2.8466551
436.205	2.84481321
436.407	2.84653671
436.61	2.8453523
436.813	2.84701177
437.016	2.8471268
437.218	2.85112727
437.421	2.85101571
437.624	2.85278811
437.827	2.8503133
438.029	2.85044119
438.232	2.8495296
438.435	2.84967454
438.637	2.85132164
438.84	2.84919611
439.043	2.84797219
439.245	2.84578367
439.448	2.84667924
439.65	2.84506555
439.853	2.84432864
440.056	2.84560643
440.258	2.84423473
440.461	2.84603122
440.663	2.84490616
440.866	2.84629711
441.068	2.84632016
441.271	2.84849735
441.473	2.8456485
441.676	2.84829648
441.878	2.84833956
442.081	2.85171536
442.283	2.85178034
442.486	2.853204
442.688	2.85364424
442.89	2.85350892
443.093	2.85678096
443.295	2.85559523
443.498	2.85741721
443.7	2.85930507
443.902	2.86302722
444.105	2.8649996
444.307	2.8631376
444.509	2.86287513
444.712	2.86343574
444.914	2.86683749
445.116	2.86905098
445.319	2.87173738
445.521	2.87016525
445.723	2.87355468
445.925	2.87424499
446.128	2.8733011
446.33	2.87442602
446.532	2.87528626
446.734	2.87515215
446.936	2.87644558
447.139	2.87669367
447.341	2.87556469
447.543	2.88108536
447.745	2.88380973
447.947	2.88207019
448.149	2.88313465
448.351	2.88426268
448.553	2.88399917
448.755	2.88498642
448.958	2.88502181
449.16	2.88180395
449.362	2.88181135
449.564	2.88198502
449.766	2.88276463
449.968	2.88255277
450.17	2.88412528
450.372	2.88550445
450.574	2.88416528
450.776	2.8862275
450.978	2.88689555
451.179	2.88651953
451.381	2.88783927
451.583	2.88748923
451.785	2.88648333
451.987	2.88468578
452.189	2.88703573
452.391	2.88560056
452.593	2.88356373
452.795	2.88542445
452.996	2.88672302
453.198	2.889063
453.4	2.89027192
453.602	2.88950081
453.804	2.89052946
454.005	2.89113284
454.207	2.89154361
454.409	2.89076664
454.611	2.89115047
454.812	2.89255298
455.014	2.89304579
455.216	2.89246625
455.417	2.89480137
455.619	2.89493971
455.821	2.8970954
456.022	2.89672608
456.224	2.89836013
456.426	2.89841327
456.627	2.90061276
456.829	2.90228115
457.031	2.90096063
457.232	2.90114723
457.434	2.90056678
457.635	2.90070947
457.837	2.90366832
458.038	2.90467498
458.24	2.9040962
458.441	2.90325101
458.643	2.90484336
458.844	2.90477596
459.046	2.90496416
459.247	2.90620017
459.449	2.9080245
459.65	2.90772103
459.852	2.90728029
460.053	2.90665557
460.254	2.90759506
460.456	2.90811307
460.657	2.90995027
460.859	2.90757703
461.06	2.90790214
461.261	2.9101011
461.463	2.91150464
461.664	2.9113667
461.865	2.91431047
462.066	2.9141356
462.268	2.91481475
462.469	2.91695919
462.67	2.92009533
462.872	2.91836624
463.073	2.91819386
463.274	2.91701191
463.475	2.91823419
463.676	2.91861479
463.878	2.91661855
464.079	2.91856629
464.28	2.91807119
464.481	2.91688742
464.682	2.91684823
464.883	2.91620022
465.085	2.91791459
465.286	2.92018573
465.487	2.91893745
465.688	2.91867352
465.889	2.91855555
466.09	2.91754265
466.291	2.91748075
466.492	2.91635503
466.693	2.91714541
466.894	2.91787717
467.095	2.91961414
467.296	2.92040239
467.497	2.92226679
467.698	2.9204054
467.899	2.92074038
468.1	2.92317863
468.301	2.92281504
468.502	2.9239636
468.703	2.92637678
468.903	2.92638546
469.104	2.9267034
469.305	2.92772684
469.506	2.92674783
469.707	2.92924954
469.908	2.93015492
470.109	2.93248807
470.309	2.93407676
470.51	2.93291468
470.711	2.93517708
470.912	2.9342327
471.112	2.93277715
471.313	2.93385625
471.514	2.93330125
471.715	2.9327941
471.915	2.93365968
472.116	2.93306887
472.317	2.93349224
472.517	2.93439783
472.718	2.93658654
472.919	2.93753519
473.119	2.93894858
473.32	2.9399144
473.521	2.94051891
473.721	2.94349519
473.922	2.94348458
474.122	2.94503446
474.323	2.94562412
474.523	2.94549853
474.724	2.94665543
474.925	2.94597698
475.125	2.94710725
475.326	2.94874091
475.526	2.94924703
475.727	2.95161097
475.927	2.95393945
476.127	2.95351871
476.328	2.95506656
476.528	2.95662499
476.729	2.95705074
476.929	2.95805482
477.13	2.95838153
477.33	2.96081211
477.53	2.9593601
477.731	2.9591006
477.931	2.95879224
478.131	2.95862563
478.332	2.95773867
478.532	2.95804716
478.732	2.95914336
478.933	2.96011211
479.133	2.96282223
479.333	2.96328463
479.533	2.96353058
479.734	2.96485339
479.934	2.96422598
480.134	2.96376798
480.334	2.96628566
480.534	2.9672368
480.735	2.96730783
480.935	2.96880635
481.135	2.96857347
481.335	2.96882846
481.535	2.96884162
481.735	2.97024401
481.935	2.97122394
482.136	2.97124637
482.336	2.97290391
482.536	2.97324769
482.736	2.97259915
482.936	2.97350045
483.136	2.97589959
483.336	2.97564327
483.536	2.97666961
483.736	2.97831511
483.936	2.97737497
484.136	2.97952283
484.336	2.9804384
484.536	2.98092038
484.736	2.98113361
484.936	2.98121913
485.135	2.98267489
485.335	2.98230049
485.535	2.98339898
485.735	2.98351949
485.935	2.98566328
486.135	2.98804169
486.335	2.98919181
486.534	2.98994397
486.734	2.99240624
486.934	2.99425947
487.134	2.99559155
487.334	2.99512629
487.533	2.99602201
487.733	2.99568515
487.933	2.99554212
488.133	2.99764099
488.332	2.9967923
488.532	2.9992952
488.732	3.00045459
488.931	3.00218442
489.131	3.0044795
489.331	3.00473907
489.53	3.00679786
489.73	3.00715084
489.93	3.00743156
490.129	3.00691061
490.329	3.00550976
490.528	3.00607774
490.728	3.00692486
490.928	3.00672795
491.127	3.00780625
491.327	3.00764893
491.526	3.0078561
491.726	3.00862972
491.925	3.0109306
492.125	3.0128771
492.324	3.01304433
492.524	3.01419099
492.723	3.01342605
492.922	3.01285761
493.122	3.0128006
493.321	3.01267146
493.521	3.0132179
493.72	3.01381262
493.919	3.01403046
494.119	3.01591314
494.318	3.01761397
494.517	3.02018199
494.717	3.02174151
494.916	3.02262504
495.115	3.02339286
495.315	3.02482762
495.514	3.02606143
495.713	3.02625925
495.912	3.02536386
496.112	3.02656994
496.311	3.02626264
496.51	3.02811717
496.709	3.02889923
496.908	3.02939671
497.108	3.03012342
497.307	3.03167584
497.506	3.03258435
497.705	3.03424718
497.904	3.03503212
498.103	3.03699161
498.302	3.03736388
498.501	3.03773835
498.701	3.03692619
498.9	3.0374399
499.099	3.03985847
499.298	3.04093124
499.497	3.04058147
499.696	3.04134866
499.895	3.04295291
500.094	3.04592154
500.293	3.04616433
500.492	3.04777641
500.691	3.0468478
500.89	3.04828429
501.088	3.05008362
501.287	3.05153666
501.486	3.05251436
501.685	3.05414436
501.884	3.05387703
502.083	3.05490911
502.282	3.05578016
502.481	3.05644462
502.679	3.0572191
502.878	3.05852789
503.077	3.05809575
503.276	3.05804542
503.475	3.06007595
503.673	3.06134954
503.872	3.06158351
504.071	3.06408789
504.27	3.06311449
504.468	3.06260003
504.667	3.06313001
504.866	3.06335622
505.064	3.06456502
505.263	3.06662878
505.462	3.06800272
505.66	3.06885995
505.859	3.06973539
506.058	3.07161377
506.256	3.07191023
506.455	3.07170267
506.653	3.07184656
506.852	3.07272279
507.05	3.07431106
507.249	3.07462171
507.448	3.07489729
507.646	3.07507272
507.845	3.07526704
508.043	3.07650263
508.242	3.07471709
508.44	3.07603176
508.638	3.07845434
508.837	3.07871898
509.035	3.08036481
509.234	3.08242357
509.432	3.08193225
509.631	3.08266253
509.829	3.0835217
510.027	3.08301578
510.226	3.08289313
510.424	3.08444121
510.622	3.08716627
510.821	3.08795996
511.019	3.08859386
511.217	3.09112446
511.415	3.09384275
511.614	3.09411582
511.812	3.09410066
512.01	3.09502662
512.208	3.09677457
512.407	3.09953672
512.605	3.09962883
512.803	3.10102993
513.001	3.1017097
513.199	3.10216767
513.398	3.09991902
513.596	3.10089278
513.794	3.10233405
513.992	3.10109369
514.19	3.10366962
514.388	3.10501472
514.586	3.10697364
514.784	3.10672491
514.982	3.10803664
515.18	3.10974111
515.378	3.1071857
515.576	3.10711318
515.774	3.10683934
515.972	3.10811765
516.17	3.10868255
516.368	3.10829767
516.566	3.10801361
516.764	3.10937471
516.962	3.10929635
517.16	3.11148168
517.358	3.11408639
517.556	3.11581427
517.754	3.11636205
517.952	3.11539033
518.149	3.11571073
518.347	3.1161344
518.545	3.11627091
518.743	3.11509474
518.941	3.116353
519.138	3.11785373
519.336	3.11737947
519.534	3.11910209
519.732	3.12070874
519.929	3.12368003
520.127	3.12375068
520.325	3.12547698
520.523	3.1277031
520.72	3.12979507
520.918	3.13121051
521.116	3.13175285
521.313	3.13235928
521.511	3.13066853
521.709	3.13214293
521.906	3.13330476
522.104	3.13494786
522.301	3.13846367
522.499	3.1389776
522.696	3.14086816
522.894	3.14452739
523.092	3.14439912
523.289	3.14469326
523.487	3.14631259
523.684	3.14751521
523.882	3.14560594
524.079	3.14702515
524.276	3.14797799
524.474	3.14964051
524.671	3.15093623
524.869	3.15148026
525.066	3.1529115
525.264	3.15403724
525.461	3.15415951
525.658	3.15627925
525.856	3.15767835
526.053	3.1571084
526.25	3.15756824
526.448	3.15783437
526.645	3.15841934
526.842	3.15927347
527.039	3.15822255
527.237	3.16069225
527.434	3.16126256
527.631	3.16291814
527.828	3.16311567
528.026	3.16695692
528.223	3.16659353
528.42	3.16771917
528.617	3.16701312
528.814	3.16724248
529.012	3.16779944
529.209	3.16892112
529.406	3.17029923
529.603	3.17130436
529.8	3.17377609
529.997	3.17520025
530.194	3.17779156
530.391	3.18179591
530.588	3.18334648
530.785	3.18564054
530.982	3.18561449
531.179	3.18683421
531.376	3.18663879
531.573	3.18782995
531.77	3.18791061
531.967	3.18964305
532.164	3.19088404
532.361	3.19255309
532.558	3.19393726
532.755	3.19400157
532.952	3.19343983
533.149	3.19509203
533.346	3.19585371
533.543	3.19717104
533.739	3.19883924
533.936	3.19800066
534.133	3.1975574
534.33	3.19857406
534.527	3.19630619
534.723	3.19708356
534.92	3.19663756
535.117	3.19769668
535.314	3.19800573
535.51	3.19819213
535.707	3.19905163
535.904	3.20076608
536.1	3.20303629
536.297	3.20339879
536.494	3.20629992
536.69	3.2071367
536.887	3.21005857
537.084	3.21148468
537.28	3.21309943
537.477	3.21320912
537.674	3.21346113
537.87	3.21338661
538.067	3.21590713
538.263	3.21846021
538.46	3.21997286
538.656	3.22136855
538.853	3.22263785
539.049	3.22437471
539.246	3.22544086
539.442	3.22796688
539.639	3.23028488
539.835	3.23127968
540.032	3.23228035
540.228	3.23228165
540.424	3.23370109
540.621	3.23202143
540.817	3.23266332
541.014	3.23297817
541.21	3.23585562
541.406	3.23689143
541.603	3.23773775
541.799	3.23965643
541.995	3.24114247
542.191	3.24075136
542.388	3.24034196
542.584	3.24201152
542.78	3.24546107
542.976	3.24507305
543.173	3.24626163
543.369	3.24689038
543.565	3.24816916
543.761	3.24960587
543.957	3.25106793
544.154	3.25292349
544.35	3.25503863
544.546	3.25608977
544.742	3.25687558
544.938	3.25808705
545.134	3.26015611
545.33	3.26087567
545.526	3.26140546
545.722	3.26248654
545.919	3.26410649
546.115	3.26559727
546.311	3.26823949
546.507	3.27179567
546.703	3.26962367
546.899	3.2685334
547.095	3.27139203
547.29	3.27245898
547.486	3.27415239
547.682	3.27305935
547.878	3.27153367
548.074	3.27244065
548.27	3.27315315
548.466	3.27510749
548.662	3.27692865
548.858	3.28029497
549.053	3.28245136
549.249	3.28343089
549.445	3.28471285
549.641	3.28701187
549.837	3.28993617
550.032	3.28997744
550.228	3.29293086
550.424	3.29463548
550.62	3.29443648
550.815	3.29775834
551.011	3.29878277
551.207	3.29832567
551.402	3.29881257
551.598	3.29990249
551.794	3.30159285
551.989	3.30482875
552.185	3.30680357
552.381	3.30929096
552.576	3.30808084
552.772	3.30802055
552.967	3.30835641
553.163	3.30948526
553.359	3.31066173
553.554	3.31265099
553.75	3.31408924
553.945	3.31443884
554.141	3.31699218
554.336	3.31707471
554.532	3.31703356
554.727	3.31927273
554.922	3.3209387
555.118	3.32286425
555.313	3.32484249
555.509	3.32641784
555.704	3.32687626
555.899	3.32806332
556.095	3.33017768
556.29	3.33138317
556.486	3.33272285
556.681	3.33481432
556.876	3.33898546
557.071	3.34051089
557.267	3.3421614
557.462	3.34279754
557.657	3.3409172
557.853	3.33993866
558.048	3.34109633
558.243	3.34039658
558.438	3.34238701
558.633	3.34392984
558.829	3.34562113
559.024	3.34548153
559.219	3.34912699
559.414	3.35071879
559.609	3.35267242
559.804	3.35652212
559.999	3.35745586
560.194	3.35728956
560.39	3.35851096
560.585	3.35928971
560.78	3.36048604
560.975	3.35930706
561.17	3.36081773
561.365	3.36140842
561.56	3.36271226
561.755	3.36513873
561.95	3.36754771
562.145	3.36935892
562.34	3.37155886
562.535	3.37290687
562.729	3.37483369
562.924	3.37358356
563.119	3.37563372
563.314	3.37465695
563.509	3.37535108
563.704	3.37538846
563.899	3.37576684
564.093	3.37815547
564.288	3.37923587
564.483	3.38079035
564.678	3.3825866
564.873	3.38355928
565.067	3.38607531
565.262	3.38589621
565.457	3.38660952
565.652	3.38922311
565.846	3.3910645
566.041	3.39126131
566.236	3.39262962
566.43	3.39356968
566.625	3.39386374
566.82	3.39566973
567.014	3.39814445
567.209	3.39789907
567.404	3.39955331
567.598	3.4003888
567.793	3.40310664
567.987	3.40404479
568.182	3.40621095
568.376	3.40784889
568.571	3.40865551
568.765	3.40671944
568.96	3.40732622
569.154	3.40625483
569.349	3.41069443
569.543	3.41139805
569.738	3.41272209
569.932	3.41306192
570.127	3.41502797
570.321	3.4155856
570.515	3.41856907
570.71	3.42014384
570.904	3.4209951
571.098	3.42275942
571.293	3.42662306
571.487	3.42635404
571.681	3.42846741
571.876	3.42988933
572.07	3.43038568
572.264	3.43117987
572.458	3.43384352
572.653	3.43620777
572.847	3.4400342
573.041	3.4418034
573.235	3.44458426
573.43	3.44152072
573.624	3.44338498
573.818	3.44428137
574.012	3.44580901
574.206	3.44789905
574.4	3.45243796
574.594	3.45358333
574.788	3.45464042
574.983	3.45531785
575.177	3.4558519
575.371	3.45538699
575.565	3.45932741
575.759	3.46172685
575.953	3.4633078
576.147	3.46593617
576.341	3.46504141
576.535	3.46626063
576.729	3.46571934
576.923	3.46661323
577.117	3.46975258
577.31	3.46927445
577.504	3.47158315
577.698	3.47287527
577.892	3.47356946
578.086	3.47578343
578.28	3.47778302
578.474	3.47633653
578.668	3.47527924
578.861	3.476239
579.055	3.4780584
579.249	3.47692133
579.443	3.47779716
579.636	3.47646369
579.83	3.47482202
580.024	3.47715019
580.218	3.47698964
580.411	3.48012119
580.605	3.48097508
580.799	3.48378406
580.992	3.48397978
581.186	3.48271933
581.38	3.48547733
581.573	3.48692254
581.767	3.48853107
581.961	3.49029814
582.154	3.49336082
582.348	3.49268733
582.541	3.49386771
582.735	3.49681085
582.928	3.49610974
583.122	3.49744005
583.315	3.50125756
583.509	3.50220342
583.702	3.50404767
583.896	3.50529367
584.089	3.50217702
584.283	3.50367395
584.476	3.50348313
584.67	3.50316161
584.863	3.50296937
585.056	3.50471452
585.25	3.5070423
585.443	3.50586188
585.636	3.50667135
585.83	3.50797399
586.023	3.5081349
586.216	3.50664017
586.41	3.50899215
586.603	3.50883359
586.796	3.50955431
586.989	3.51227399
587.183	3.51109153
587.376	3.51266861
587.569	3.51469467
587.762	3.5174428
587.955	3.52028037
588.149	3.52336806
588.342	3.52512732
588.535	3.52580135
588.728	3.52730655
588.921	3.52692058
589.114	3.52897425
589.307	3.53037428
589.5	3.53318662
589.693	3.53564471
589.886	3.53922459
590.08	3.5388591
590.273	3.54233095
590.466	3.54118368
590.659	3.54378229
590.852	3.54542857
591.044	3.5469884
591.237	3.55021344
591.43	3.54818839
591.623	3.54825986
591.816	3.54823859
592.009	3.54758847
592.202	3.54803073
592.395	3.54859902
592.588	3.54957377
592.781	3.54973213
592.973	3.55257492
593.166	3.55233322
593.359	3.55536848
593.552	3.55532003
593.745	3.55545115
593.937	3.55362366
594.13	3.55571277
594.323	3.55607833
594.515	3.55785209
594.708	3.55805343
594.901	3.55778111
595.094	3.55744204
595.286	3.55835452
595.479	3.55887328
595.672	3.55910355
595.864	3.55992646
596.057	3.56402996
596.249	3.56436754
596.442	3.56436856
596.635	3.56840674
596.827	3.56977773
597.02	3.57100128
597.212	3.57173209
597.405	3.570853
597.597	3.57322179
597.79	3.5733727
597.982	3.57346519
598.175	3.57618327
598.367	3.57351186
598.559	3.57448357
598.752	3.57317142
598.944	3.57354824
599.137	3.57317361
599.329	3.57145297
599.521	3.57637518
599.714	3.57646105
599.906	3.57747063
600.098	3.57763209
600.291	3.57763612
600.483	3.57775994
600.675	3.5755298
600.868	3.5785228
601.06	3.57751679
601.252	3.57672521
601.444	3.57706309
601.637	3.57618118
601.829	3.57816002
602.021	3.57954299
602.213	3.57838642
602.405	3.58031382
602.597	3.58219101
602.789	3.58477262
602.982	3.58586603
603.174	3.58640778
603.366	3.58646659
603.558	3.58599261
603.75	3.59162065
603.942	3.590262
604.134	3.58973474
604.326	3.59270391
604.518	3.59488191
604.71	3.59654211
604.902	3.59427436
605.094	3.59554037
605.286	3.59919515
605.478	3.59888228
605.67	3.59910438
605.862	3.59962758
606.054	3.59929023
606.246	3.60120244
606.437	3.60193499
606.629	3.60049017
606.821	3.60064039
607.013	3.59962316
607.205	3.60398254
607.397	3.60647822
607.588	3.60773357
607.78	3.60531865
607.972	3.60808598
608.164	3.60906222
608.355	3.61017458
608.547	3.61215595
608.739	3.61428703
608.93	3.6170538
609.122	3.61656771
609.314	3.61731983
609.505	3.61746074
609.697	3.6195631
609.889	3.6191937
610.08	3.61937967
610.272	3.61914295
610.463	3.62193169
610.655	3.62292067
610.847	3.62439712
611.038	3.62437754
611.23	3.62377636
611.421	3.62714647
611.613	3.62742371
611.804	3.6307382
611.996	3.63184641
612.187	3.63457749
612.379	3.63474465
612.57	3.63586349
612.761	3.63662657
612.953	3.637532
613.144	3.6419042
613.336	3.63976601
613.527	3.64137767
613.718	3.64339142
613.91	3.64380531
614.101	3.64255013
614.292	3.64536244
614.483	3.64566841
614.675	3.6463787
614.866	3.64857152
615.057	3.65249833
615.248	3.65354672
615.44	3.65292152
615.631	3.65175129
615.822	3.64936961
616.013	3.64980354
616.204	3.64924705
616.396	3.65018946
616.587	3.64984804
616.778	3.64738674
616.969	3.64560951
617.16	3.6454753
617.351	3.64881639
617.542	3.6476218
617.733	3.64691418
617.924	3.64839918
618.115	3.65321149
618.306	3.65333418
618.497	3.65386611
618.688	3.65632143
618.879	3.65429101
619.07	3.65645177
619.261	3.65838452
619.452	3.65622822
619.643	3.65343072
619.834	3.65273112
620.025	3.65097081
620.216	3.65000927
620.407	3.64985866
620.597	3.65013081
620.788	3.65553235
620.979	3.65740571
621.17	3.65586889
621.361	3.6544316
621.551	3.65925118
621.742	3.66182266
621.933	3.66292449
622.124	3.66060927
622.314	3.65790568
622.505	3.65818501
622.696	3.65937298
622.886	3.6609556
623.077	3.65739537
623.268	3.65698409
623.458	3.66094051
623.649	3.66466052
623.84	3.67062257
624.03	3.6743375
624.221	3.67730279
624.411	3.68160209
624.602	3.68173574
624.792	3.68181777
624.983	3.68617458
625.173	3.69067216
625.364	3.69384452
625.554	3.69466118
625.745	3.69407137
625.935	3.69329256
626.126	3.69524477
626.316	3.69745071
626.507	3.69657317
626.697	3.69831987
626.887	3.70001641
627.078	3.70315161
627.268	3.70511137
627.458	3.70646226
627.649	3.71031423
627.839	3.70985763
628.029	3.71013706
628.22	3.71124579
628.41	3.70830205
628.6	3.71001014
628.79	3.70643418
628.981	3.70594987
629.171	3.7048415
629.361	3.70499981
629.551	3.70352968
629.741	3.7054164
629.932	3.70825349
630.122	3.71078937
630.312	3.71294812
630.502	3.71065227
630.692	3.70917968
630.882	3.71060188
631.072	3.71554451
631.262	3.71419061
631.452	3.71600532
631.642	3.7147052
631.832	3.71692606
632.022	3.71870916
632.212	3.71609384
632.402	3.71971356
632.592	3.72156579
632.782	3.72565383
632.972	3.72767448
633.162	3.72769161
633.352	3.72820455
633.542	3.7267221
633.732	3.72883513
633.922	3.72935307
634.111	3.73252665
634.301	3.73218497
634.491	3.73550719
634.681	3.73753162
634.871	3.73609634
635.06	3.7361235
635.25	3.73770753
635.44	3.73291807
635.63	3.73491168
635.819	3.73500304
636.009	3.73657881
636.199	3.74081428
636.388	3.74054282
636.578	3.74045672
636.768	3.74303709
636.957	3.74217652
637.147	3.74144002
637.337	3.74200909
637.526	3.74492782
637.716	3.74484064
637.905	3.74669736
638.095	3.74774503
638.284	3.75048563
638.474	3.75281041
638.663	3.75336203
638.853	3.75590402
639.042	3.75829419
639.232	3.75952717
639.421	3.76295543
639.611	3.764445
639.8	3.76560072
639.99	3.76626362
640.179	3.76489223
640.368	3.76487462
640.558	3.76598691
640.747	3.76428998
640.936	3.76425327
641.126	3.76699806
641.315	3.7660102
641.504	3.76759388
641.694	3.76730944
641.883	3.77028214
642.072	3.76689515
642.261	3.7653875
642.451	3.76788721
642.64	3.76702802
642.829	3.76756321
643.018	3.76158036
643.207	3.76203871
643.397	3.76492008
643.586	3.76706596
643.775	3.76844251
643.964	3.76660477
644.153	3.769979
644.342	3.77048464
644.531	3.77124786
644.72	3.77405815
644.909	3.77701233
645.098	3.7761527
645.287	3.7809216
645.476	3.78264548
645.665	3.7841646
645.854	3.7793691
646.043	3.78411955
646.232	3.78578525
646.421	3.78466309
646.61	3.78361178
646.799	3.78666492
646.988	3.79285482
647.177	3.79211853
647.365	3.79307936
647.554	3.79507016
647.743	3.79564692
647.932	3.79739696
648.121	3.79927288
648.309	3.80257919
648.498	3.80268323
648.687	3.8014054
648.876	3.80178005
649.064	3.80551251
649.253	3.80819165
649.442	3.81050476
649.63	3.81181289
649.819	3.815626
650.008	3.81601649
650.196	3.81752672
650.385	3.81865172
650.574	3.82168153
650.762	3.82028695
650.951	3.81747189
651.139	3.82255129
651.328	3.82096248
651.516	3.81931953
651.705	3.82009791
651.893	3.82157463
652.082	3.82027635
652.27	3.81907457
652.459	3.81982709
652.647	3.82532331
652.836	3.82535782
653.024	3.82833198
653.213	3.82203466
653.401	3.81806677
653.589	3.81981226
653.778	3.8211375
653.966	3.81837843
654.154	3.81963929
654.343	3.82447363
654.531	3.82796156
654.719	3.82895986
654.908	3.8313175
655.096	3.83080519
655.284	3.83360124
655.472	3.83325386
655.661	3.83614721
655.849	3.83620395
656.037	3.83763335
656.225	3.83532517
656.413	3.83760945
656.601	3.83928661
656.79	3.84224984
656.978	3.84242941
657.166	3.84721787
657.354	3.85100204
657.542	3.85206228
657.73	3.84920435
657.918	3.85341531
658.106	3.8543633
658.294	3.85319325
658.482	3.85497295
658.67	3.86021354
658.858	3.85922046
659.046	3.86084605
659.234	3.85986912
659.422	3.86014062
659.61	3.8581292
659.798	3.86082855
659.986	3.86008744
660.173	3.86520019
660.361	3.86606875
660.549	3.86264844
660.737	3.86211101
660.925	3.85629934
661.113	3.85500631
661.3	3.8532679
661.488	3.85472072
661.676	3.8586513
661.864	3.85512332
662.051	3.85907925
662.239	3.8600011
662.427	3.85727959
662.614	3.85360625
662.802	3.85604884
662.99	3.85792546
663.177	3.86007991
663.365	3.86551501
663.553	3.86335838
663.74	3.86469968
663.928	3.8687831
664.115	3.86489364
664.303	3.86553921
664.49	3.86715118
664.678	3.86804477
664.866	3.87634018
665.053	3.87888506
665.24	3.88597113
665.428	3.8842673
665.615	3.88467433
665.803	3.88949901
665.99	3.88873604
666.178	3.88686573
666.365	3.8872326
666.552	3.88911766
666.74	3.89020766
666.927	3.88674699
667.114	3.88804484
667.302	3.88275433
667.489	3.88514403
667.676	3.88277377
667.864	3.88371244
668.051	3.88681643
668.238	3.88500808
668.425	3.88320256
668.613	3.88055363
668.8	3.87706623
668.987	3.87519903
669.174	3.87099554
669.361	3.87283914
669.548	3.87055128
669.736	3.87473607
669.923	3.87257934
670.11	3.87886548
670.297	3.8825618
670.484	3.88297028
670.671	3.88533026
670.858	3.88860086
671.045	3.88863755
671.232	3.89456586
671.419	3.89473077
671.606	3.89816529
671.793	3.89556799
671.98	3.89486906
672.167	3.8993553
672.354	3.90045032
672.541	3.90048434
672.728	3.90543824
672.915	3.90821068
673.101	3.90682876
673.288	3.90247032
673.475	3.91054165
673.662	3.90683125
673.849	3.90737384
674.035	3.90518933
674.222	3.90380635
674.409	3.90424151
674.596	3.90183444
674.783	3.90158254
674.969	3.90655776
675.156	3.90624228
675.343	3.9078426
675.529	3.9059837
675.716	3.90824934
675.903	3.9105077
676.089	3.91134821
676.276	3.91501774
676.462	3.92184982
676.649	3.92106654
676.836	3.92401327
677.022	3.92843931
677.209	3.93780288
677.395	3.93463108
677.582	3.9334592
677.768	3.93522078
677.955	3.93574656
678.141	3.93657759
678.328	3.93741781
678.514	3.93922422
678.701	3.94054638
678.887	3.93662884
679.073	3.93675669
679.26	3.93692804
679.446	3.93813666
679.632	3.93779338
679.819	3.94158154
680.005	3.94386961
680.191	3.94305666
680.378	3.93407837
680.564	3.9348182
680.75	3.93185656
680.936	3.9310165
681.123	3.93004312
681.309	3.92979589
681.495	3.93320282
681.681	3.93380826
681.867	3.93538556
682.054	3.93777499
682.24	3.93773319
682.426	3.94007066
682.612	3.93894688
682.798	3.93741487
682.984	3.93648789
683.17	3.93787138
683.356	3.94065751
683.542	3.94366452
683.728	3.93735833
683.914	3.93065387
684.1	3.92860217
684.286	3.93439619
684.472	3.93607211
684.658	3.94196231
684.844	3.94267521
685.03	3.93991744
685.216	3.94011411
685.402	3.943703
685.588	3.94630525
685.774	3.94987171
685.96	3.94779194
686.145	3.95284592
686.331	3.94634588
686.517	3.9526638
686.703	3.95419201
686.889	3.95337958
687.074	3.95277805
687.26	3.95015452
687.446	3.95014533
687.631	3.95771628
687.817	3.95545057
688.003	3.95434594
688.189	3.95491435
688.374	3.95851759
688.56	3.95722568
688.745	3.95746288
688.931	3.95377625
689.117	3.95042641
689.302	3.95073635
689.488	3.94395078
689.673	3.93655034
689.859	3.93811409
690.044	3.93011071
690.23	3.93318629
690.415	3.92410673
690.601	3.92379879
690.786	3.92571817
690.972	3.92765136
691.157	3.92707993
691.343	3.92445891
691.528	3.92387598
691.713	3.92548509
691.899	3.93500491
692.084	3.94076013
692.269	3.93481793
692.455	3.93282099
692.64	3.9271235
692.825	3.93065039
693.011	3.93159116
693.196	3.92402709
693.381	3.93114177
693.566	3.93258726
693.752	3.93159791
693.937	3.93559355
694.122	3.93463449
694.307	3.93139768
694.492	3.93724113
694.678	3.93596746
694.863	3.93238115
695.048	3.92989612
695.233	3.92475721
695.418	3.92271623
695.603	3.9271515
695.788	3.91660859
695.973	3.90938351
696.158	3.91046852
696.343	3.90927785
696.528	3.91272149
696.713	3.91040245
696.898	3.91225709
697.083	3.91495856
697.268	3.90597863
697.453	3.90199697
697.638	3.90313143
697.823	3.90110226
698.008	3.90321493
698.192	3.9063645
698.377	3.89902421
698.562	3.8958625
698.747	3.89566178
698.932	3.90131549
699.117	3.90318443
699.301	3.90229851
699.486	3.89379503
699.671	3.89893322
699.856	3.8931392
700.04	3.88417536
700.225	3.88214744
700.41	3.88114878
700.594	3.87154443
700.779	3.86888169
700.964	3.87000112
701.148	3.87365766
701.333	3.87426756
701.517	3.87165909
701.702	3.86732355
701.887	3.86775054
702.071	3.86946126
702.256	3.86818818
702.44	3.8664983
702.625	3.86019364
702.809	3.85431103
702.994	3.85023902
703.178	3.84765223
703.362	3.84627843
703.547	3.84218412
703.731	3.84221785
703.916	3.84325458
704.1	3.8388025
704.284	3.83459922
704.469	3.83568328
704.653	3.82866239
704.837	3.82014435
705.022	3.82061169
705.206	3.81762953
705.39	3.81577632
705.575	3.81049062
705.759	3.79733501
705.943	3.79313698
706.127	3.78306789
706.311	3.77839796
706.496	3.77638343
706.68	3.77291681
706.864	3.7692599
707.048	3.76724491
707.232	3.77014367
707.416	3.76772787
707.6	3.76238582
707.785	3.75877351
707.969	3.75895913
708.153	3.75637235
708.337	3.75464869
708.521	3.75730424
708.705	3.75419594
708.889	3.74417862
709.073	3.74238757
709.257	3.7362482
709.441	3.73623915
709.624	3.73988454
709.808	3.73333401
709.992	3.73956662
710.176	3.73541718
710.36	3.73361718
710.544	3.72398694
710.728	3.72078781
710.912	3.71694505
711.095	3.71319813
711.279	3.70899208
711.463	3.71260681
711.647	3.71260884
711.83	3.70809861
712.014	3.7086632
712.198	3.70419875
712.382	3.69516493
712.565	3.69594197
712.749	3.69631962
712.933	3.69431921
713.116	3.69092708
713.3	3.68980738
713.483	3.67767329
713.667	3.67681149
713.851	3.66737845
714.034	3.66726943
714.218	3.66742423
714.401	3.66470007
714.585	3.66041936
714.768	3.65513415
714.952	3.64966834
715.135	3.64070106
715.319	3.63384639
715.502	3.63180307
715.686	3.62725639
715.869	3.61994185
716.052	3.62223541
716.236	3.6210834
716.419	3.61123702
716.602	3.60217597
716.786	3.59651566
716.969	3.59114697
717.152	3.58917149
717.336	3.58708272
717.519	3.58198835
717.702	3.57759134
717.885	3.57930062
718.069	3.56333958
718.252	3.56531482
718.435	3.56542319
718.618	3.55614261
718.801	3.54767069
718.985	3.54123797
719.168	3.5363478
719.351	3.52736537
719.534	3.51847945
719.717	3.51439038
719.9	3.50769707
720.083	3.4991565
720.266	3.49772315
720.449	3.49616765
720.632	3.48898298
720.815	3.4854505
720.998	3.47908587
721.181	3.47488493
721.364	3.47120301
721.547	3.46810411
721.73	3.45582026
721.913	3.45784196
722.096	3.44870475
722.279	3.43983795
722.461	3.43939262
722.644	3.44075208
722.827	3.44036719
723.01	3.43540882
723.193	3.42296606
723.376	3.41996594
723.558	3.42004297
723.741	3.41253534
723.924	3.41071046
724.107	3.40411724
724.289	3.39670822
724.472	3.38680029
724.655	3.38316734
724.837	3.38301074
725.02	3.37741511
725.203	3.36972798
725.385	3.36292324
725.568	3.35525521
725.75	3.35314428
725.933	3.35294355
726.115	3.34688609
726.298	3.33914228
726.481	3.33251116
726.663	3.32460991
726.845	3.3197398
727.028	3.32483807
727.21	3.32375015
727.393	3.30905275
727.575	3.30772597
727.758	3.30675663
727.94	3.30609269
728.122	3.30463755
728.305	3.30451639
728.487	3.30016765
728.67	3.28784503
728.852	3.29079977
729.034	3.29290621
729.216	3.2922512
729.399	3.29218944
729.581	3.28652941
729.763	3.28371854
729.945	3.28218573
730.128	3.2781659
730.31	3.27015983
730.492	3.26911264
730.674	3.26873736
730.856	3.2656868
731.039	3.25768543
731.221	3.25990563
731.403	3.26009698
731.585	3.25700254
731.767	3.25129488
731.949	3.24752251
732.131	3.24729713
732.313	3.24169936
732.495	3.23874426
732.677	3.23232283
732.859	3.22396376
733.041	3.22372779
733.223	3.22050986
733.405	3.22231002
733.587	3.21510675
733.769	3.21734901
733.951	3.21605987
734.132	3.21592848
734.314	3.21659213
734.496	3.2081169
734.678	3.20067219
734.86	3.20012397
735.042	3.19961191
735.223	3.19197601
735.405	3.18865078
735.587	3.18526529
735.769	3.18240378
735.95	3.17513731
736.132	3.17517045
736.314	3.17459294
736.495	3.17225056
736.677	3.17195742
736.859	3.16806545
737.04	3.16365917
737.222	3.15518378
737.403	3.15226843
737.585	3.14703603
737.767	3.14221203
737.948	3.14193623
738.13	3.13892261
738.311	3.13833431
738.493	3.13753263
738.674	3.13465404
738.856	3.12820335
739.037	3.12351529
739.219	3.11744803
739.4	3.11693729
739.581	3.11696841
739.763	3.11598764
739.944	3.113228
740.125	3.10750836
740.307	3.10338477
740.488	3.09909808
740.669	3.0912851
740.851	3.0935797
741.032	3.09422923
741.213	3.09152015
741.395	3.08331325
741.576	3.08178076
741.757	3.07469046
741.938	3.07121517
742.119	3.06903755
742.301	3.06406516
742.482	3.06177117
742.663	3.05747798
742.844	3.05295024
743.025	3.05350331
743.206	3.04747471
743.387	3.04638012
743.568	3.04658711
743.749	3.04363601
743.93	3.04341845
744.111	3.04039429
744.292	3.03542657
744.473	3.0369674
744.654	3.03288919
744.835	3.02789096
745.016	3.02749659
745.197	3.03099057
745.378	3.02934715
745.559	3.03450031
745.74	3.02789501
745.921	3.02215199
746.102	3.02437042
746.282	3.02236117
746.463	3.0246714
746.644	3.0246461
746.825	3.02176264
747.006	3.02331911
747.186	3.01666303
747.367	3.01332607
747.548	3.0066383
747.728	3.00369589
747.909	3.0028209
748.09	3.00546951
748.27	3.00179299
748.451	2.99723079
748.632	2.99875075
748.812	2.99323634
748.993	2.99077487
749.173	2.98822799
749.354	2.98767133
749.535	2.99089084
749.715	2.99263585
749.896	2.99283373
750.076	2.98895327
750.257	2.98503312
750.437	2.98684317
750.618	2.98484848
750.798	2.9786593
750.978	2.9825521
751.159	2.97932952
751.339	2.98278352
751.52	2.97823599
751.7	2.97834301
751.88	2.97762135
752.061	2.96900189
752.241	2.97243186
752.421	2.96772605
752.601	2.96977133
752.782	2.96993788
752.962	2.97293411
753.142	2.96478784
753.322	2.95489495
753.503	2.95523557
753.683	2.95052615
753.863	2.95366694
754.043	2.95440881
754.223	2.95049153
754.403	2.95108805
754.583	2.95567323
754.764	2.94422507
754.944	2.94676538
755.124	2.94114515
755.304	2.94933514
755.484	2.94586431
755.664	2.94605371
755.844	2.95194651
756.024	2.94556603
756.204	2.95301715
756.384	2.95522977
756.564	2.95729539
756.743	2.94641497
756.923	2.94295225
757.103	2.95189281
757.283	2.945423
757.463	2.93721434
757.643	2.93269507
757.823	2.92264066
758.002	2.92018274
758.182	2.9179615
758.362	2.91305932
758.542	2.91359554
758.721	2.9067606
758.901	2.90541957
759.081	2.9068992
759.261	2.90579078
759.44	2.90252005
759.62	2.90379953
759.8	2.90197006
759.979	2.89009055
760.159	2.88651914
760.338	2.87345192
760.518	2.87210355
760.698	2.87560282
760.877	2.8642014
761.057	2.86234452
761.236	2.87087901
761.416	2.8758867
761.595	2.88695599
761.775	2.88484838
761.954	2.88136264
762.133	2.88035736
762.313	2.8810001
762.492	2.88392208
762.672	2.87585613
762.851	2.87121456
763.03	2.87591776
763.21	2.87489841
763.389	2.87021281
763.568	2.86678996
763.748	2.86885603
763.927	2.87199083
764.106	2.87487067
764.286	2.87855275
764.465	2.87727998
764.644	2.87900766
764.823	2.88838858
765.002	2.87946452
765.182	2.86782255
765.361	2.85504107
765.54	2.85419872
765.719	2.85760324
765.898	2.85405874
766.077	2.85300984
766.256	2.85337263
766.435	2.85746365
766.614	2.85240339
766.793	2.8440902
766.972	2.84284276
767.151	2.84429375
767.33	2.85058733
767.509	2.84499159
767.688	2.84077971
767.867	2.83885501
768.046	2.84227514
768.225	2.83874972
768.404	2.84360949
768.583	2.83845118
768.762	2.84047601
768.94	2.84677264
769.119	2.85175419
769.298	2.85147866
769.477	2.84932081
769.656	2.85666725
769.834	2.85260751
770.013	2.85087196
770.192	2.8432706
770.37	2.84283809
770.549	2.84514873
770.728	2.84548298
770.906	2.84226243
771.085	2.83539628
771.264	2.84339425
771.442	2.84487506
771.621	2.84656358
771.799	2.83685287
771.978	2.83991553
772.157	2.83408425
772.335	2.82388082
772.514	2.81958951
772.692	2.81127736
772.871	2.81047112
773.049	2.80868028
773.228	2.81074941
773.406	2.80825065
773.584	2.80922807
773.763	2.80330904
773.941	2.81141619
774.119	2.80664303
774.298	2.80598576
774.476	2.79475693
774.655	2.80004125
774.833	2.80548598
775.011	2.79756737
775.189	2.79418544
775.368	2.7864672
775.546	2.78787368
775.724	2.78633671
775.902	2.78908609
776.08	2.79576106
776.259	2.79918362
776.437	2.80405524
776.615	2.79987057
776.793	2.80450662
776.971	2.80185866
777.149	2.79873051
777.327	2.80165372
777.505	2.80274003
777.683	2.80585034
777.861	2.80736595
778.04	2.80700686
778.218	2.81601493
778.395	2.81376289
778.573	2.80571871
778.751	2.80172982
778.929	2.80150867
779.107	2.80798108
779.285	2.80832969
779.463	2.81012473
779.641	2.80616261
779.819	2.80176063
779.997	2.80144799
780.174	2.79923739
780.352	2.79929048
780.53	2.79624845
780.708	2.78616087
780.886	2.78006821
781.063	2.76650477
781.241	2.75694144
781.419	2.75002255
781.596	2.75183557
781.774	2.74993141
781.952	2.74077939
782.129	2.73942384
782.307	2.73442051
782.485	2.73681787
782.662	2.7348581
782.84	2.72759094
783.017	2.72154332
783.195	2.71826793
783.372	2.70750705
783.55	2.70706247
783.727	2.70053896
783.905	2.70038796
784.082	2.70011023
784.26	2.69722357
784.437	2.69697949
784.615	2.69778765
784.792	2.71234233
784.969	2.72745549
785.147	2.72409611
785.324	2.72014855
785.501	2.71192477
785.679	2.71795399
785.856	2.71629008
786.033	2.70834018
786.211	2.70629675
786.388	2.70664749
786.565	2.70820332
786.742	2.71437222
786.92	2.71424562
787.097	2.7148004
787.274	2.70580872
787.451	2.70519314
787.628	2.70321861
787.805	2.69951878
787.982	2.69650403
788.16	2.69289518
788.337	2.69145965
788.514	2.6785199
788.691	2.66385182
788.868	2.66321908
789.045	2.66160611
789.222	2.66074846
789.399	2.64427943
789.576	2.63366636
789.753	2.63541973
789.93	2.6262114
790.106	2.61087788
790.283	2.60562865
790.46	2.60382328
790.637	2.5980099
790.814	2.61055365
790.991	2.620832
791.168	2.61126437
791.344	2.60720913
791.521	2.59950111
791.698	2.60170656
791.875	2.60396963
792.051	2.59731165
792.228	2.59858973
792.405	2.60727387
792.581	2.61078279
792.758	2.60027346
792.935	2.60034131
793.111	2.59817493
793.288	2.59563923
793.465	2.599629
793.641	2.6055887
793.818	2.61933095
793.994	2.62121146
794.171	2.61873923
794.347	2.61405039
794.524	2.61004328
794.7	2.61010583
794.877	2.61565579
795.053	2.60879144
795.23	2.61681899
795.406	2.61222623
795.583	2.60429552
795.759	2.59928937
795.935	2.59035778
796.112	2.57564799
796.288	2.55533966
796.464	2.55465977
796.641	2.54712244
796.817	2.56375816
796.993	2.57072199
797.169	2.57189045
797.346	2.57329894
797.522	2.55752827
797.698	2.56184159
797.874	2.57070727
798.051	2.56020221
798.227	2.55516499
798.403	2.55907125
798.579	2.56162854
798.755	2.57554038
798.931	2.58863918
799.107	2.59320209
799.283	2.59816609
799.459	2.601242
799.635	2.60949432
799.811	2.6185727
799.987	2.64238693
800.163	2.64576873
800.339	2.65049171
800.515	2.6517363
800.691	2.63062452
800.867	2.62747928
801.043	2.62379743
801.219	2.62900479
801.395	2.62040155
801.571	2.60132369
801.746	2.60880878
801.922	2.6105264
802.098	2.60030724
802.274	2.5878306
802.45	2.56013573
802.625	2.53963242
802.801	2.51449718
802.977	2.50839799
803.152	2.51893485
803.328	2.51496305
803.504	2.50737234
803.679	2.47922548
803.855	2.47425742
804.031	2.47784319
804.206	2.45976215
804.382	2.4823789
804.557	2.48486792
804.733	2.47721793
804.909	2.4645507
805.084	2.4515999
805.26	2.43139437
805.435	2.41878741
805.61	2.41043173
805.786	2.40552851
805.961	2.41791429
806.137	2.4368521
806.312	2.4382569
806.488	2.44734255
806.663	2.4372171
806.838	2.42170285
807.014	2.43123658
807.189	2.41461634
807.364	2.41898396
807.54	2.41286092
807.715	2.39874562
807.89	2.40674958
808.065	2.38653296
808.241	2.38347188
808.416	2.38097444
808.591	2.38261931
808.766	2.40177035
808.941	2.42121157
809.116	2.42808131
809.291	2.42751436
809.467	2.42035094
809.642	2.40149965
809.817	2.39740514
809.992	2.3737639
810.167	2.36125095
810.342	2.33812478
810.517	2.32165015
810.692	2.29632228
810.867	2.30062302
811.042	2.28185548
811.217	2.28312083
811.392	2.28525165
811.567	2.28764058
811.741	2.28261924
811.916	2.25969305
812.091	2.25861759
812.266	2.26155555
812.441	2.25115038
812.616	2.24697185
812.79	2.2564661
812.965	2.25405384
813.14	2.24828557
813.315	2.265381
813.489	2.27021544
813.664	2.29242659
813.839	2.26960847
814.013	2.27901332
814.188	2.26841092
814.363	2.27646733
814.537	2.28005075
814.712	2.31974954
814.887	2.29918835
815.061	2.3081611
815.236	2.30584997
815.41	2.30733964
815.585	2.29289066
815.759	2.30954542
815.934	2.31943513
816.108	2.29755545
816.283	2.2978881
816.457	2.2978848
816.631	2.2920026
816.806	2.29827942
816.98	2.25294835
817.155	2.21780819
817.329	2.21366148
817.503	2.21526206
817.678	2.23276026
817.852	2.24430652
818.026	2.2398878
818.201	2.23200169
818.375	2.18974742
818.549	2.19724344
818.723	2.17258957
818.897	2.12608074
819.072	2.15310588
819.246	2.18010222
819.42	2.14733088
819.594	2.12301806
819.768	2.12907262
819.942	2.10770396
820.116	2.05293725
820.29	2.03440989
820.465	2.00716196
820.639	2.02397391
820.813	2.01880161
820.987	2.02161377
821.161	2.03711491
821.335	2.030835
821.509	2.01909907
821.682	2.02809745
821.856	2.03894159
822.03	2.05905075
822.204	2.05049754
822.378	2.05138512
822.552	2.06401405
822.726	2.03422799
822.9	2.03578272
823.073	2.04288871
823.247	2.03268929
823.421	2.03217141
823.595	2.06739943
823.768	2.08205769
823.942	2.07625736
824.116	2.09922601
824.289	2.09784339
824.463	2.10023623
824.637	2.06013926
824.81	2.05323054
824.984	2.06831573
825.158	2.05906961
825.331	2.05705262
825.505	2.05885887
825.678	2.08151451
825.852	2.12959842
826.025	2.12471619
826.199	2.11423494
826.372	2.12471784
826.546	2.108624
826.719	2.09777044
826.893	2.10871301
827.066	2.10263354
827.24	2.06932129
827.413	2.0760936
827.586	2.0915429
827.76	2.07874462
827.933	2.0803311
828.106	2.08347985
828.28	2.12242627
828.453	2.14231676
828.626	2.08516505
828.799	2.13772265
828.973	2.12376977
829.146	2.10674982
829.319	2.06366572
829.492	2.01846155
829.665	2.02868355
829.839	2.04928989
830.012	2.03164331
830.185	2.03490712
830.358	2.03240504
830.531	2.0633054
830.704	2.03883533
830.877	2.0526841
831.05	2.03257333
831.223	2.0270066
831.396	2.03266159
831.569	2.02844799
831.742	2.01972158
831.915	1.99806705
832.088	1.95505027
832.261	2.00688887
832.434	1.9828391
832.607	2.00999468
832.779	2.00078103
832.952	1.98490758
833.125	1.9941684
833.298	1.99274055
833.471	2.00753187
833.643	2.01390033
833.816	2.03768246
833.989	2.02451289
834.162	1.9888376
834.334	2.00762624
834.507	1.97907204
834.68	1.99189355
834.852	1.98046357
835.025	1.99013148
835.198	1.99752821
835.37	2.03687268
835.543	2.04775627
835.715	2.05373398
835.888	2.0360727
836.061	2.02968387
836.233	2.00301222
836.406	1.97536758
836.578	2.01073687
836.751	1.99921395
836.923	2.00273694
837.095	1.97140148
837.268	1.97146629
837.44	1.96967312
837.613	1.97027268
837.785	1.98520036
837.957	1.96003582
838.13	1.99555961
838.302	2.01792171
838.474	2.03460099
838.647	1.99425245
838.819	1.99316332
838.991	1.92117769
839.163	1.91651223
839.336	1.91783155
839.508	1.91975895
839.68	1.91961936
839.852	1.92584586
840.024	1.99802701
840.196	2.00343626
840.368	1.99350655
840.541	1.99323896
840.713	1.9900544
840.885	1.99656503
841.057	1.95559005
841.229	1.99616364
841.401	1.93573465
841.573	1.97508127
841.745	1.91508506
841.917	1.8763562
842.089	1.82489765
842.261	1.79220169
842.432	1.75269831
842.604	1.80999781
842.776	1.80136968
842.948	1.82427531
843.12	1.83468022
843.292	1.82944419
843.464	1.82062643
843.635	1.73489947
843.807	1.68533983
843.979	1.70072467
844.151	1.66353874
844.322	1.64275512
844.494	1.65488751
844.666	1.59037152
844.837	1.56016925
845.009	1.59234644
845.181	1.58020588
845.352	1.61541026
845.524	1.64582945
845.695	1.64157678
845.867	1.66523976
846.039	1.66621858
846.21	1.61277679
846.382	1.5971964
846.553	1.61743822
846.725	1.54761293
846.896	1.51496976
847.068	1.4499671
847.239	1.54534247
847.41	1.62082533
847.582	1.61850117
847.753	1.59733725
847.925	1.64399703
848.096	1.61703893
848.267	1.67612521
848.439	1.66426226
848.61	1.66316364
848.781	1.66262281
848.952	1.71482096
849.124	1.70389038
849.295	1.76184976
849.466	1.79848395
849.637	1.80294623
849.808	1.86055373
849.98	1.83984399
850.151	1.75274581
850.322	1.80931307
850.493	1.81101064
850.664	1.86727971
850.835	1.74142894
851.006	1.65541193
851.177	1.60331564
851.348	1.56957494
851.519	1.54936844
851.69	1.51685946
851.861	1.6120065
852.032	1.62901109
852.203	1.61758756
852.374	1.58772272
852.545	1.57201592
852.716	1.58922929
852.887	1.60797873
853.057	1.56214036
853.228	1.66571689
853.399	1.66469795
853.57	1.66250021
853.741	1.64690807
853.911	1.68946858
854.082	1.67186622
854.253	1.65441474
854.424	1.75862462
854.594	1.86823521
854.765	1.90287431
854.936	1.9786315
855.106	1.95012589
855.277	1.96717636
855.447	1.83333175
855.618	1.83906898
855.789	1.77299454
855.959	1.74302113
856.13	1.73471602
856.3	1.73819116
856.471	1.61245712
856.641	1.60941375
856.812	1.48920804
856.982	1.49251057
857.153	1.51036805
857.323	1.57671661
857.493	1.52951404
857.664	1.57184727
857.834	1.50286423
858.004	1.43811518
858.175	1.41950546
858.345	1.37257025
858.515	1.39079245
858.686	1.31819629
858.856	1.36397031
859.026	1.381423
859.196	1.34011599
859.367	1.43205174
859.537	1.51614316
859.707	1.37762438
859.877	1.39477278
860.047	1.45088306
860.217	1.45068479
860.387	1.48027026
860.558	1.43344445
860.728	1.37757291
860.898	1.38854504
861.068	1.37207686
861.238	1.40423413
861.408	1.4145694
861.578	1.37542642
861.748	1.31208618
861.918	1.4384182
862.088	1.36039545
862.257	1.43046423
862.427	1.32948968
862.597	1.41931879
862.767	1.50339318
862.937	1.48334888
863.107	1.45200872
863.277	1.43485569
863.446	1.41639383
863.616	1.46134974
863.786	1.51006676
863.956	1.55198267
864.125	1.53649201
864.295	1.5490959
864.465	1.47782368
864.634	1.36658596
864.804	1.35008599
864.974	1.31959304
865.143	1.41243585
865.313	1.39480643
865.482	1.31244231
865.652	1.31947002
865.822	1.20165565
865.991	1.26735348
866.161	1.22431918
866.33	1.08863008
866.5	1.11035971
866.669	1.16687259
866.838	1.21918317
867.008	1.00227675
867.177	1.01346913
867.347	1.0302923
867.516	0.91957033
867.685	0.83869445
867.855	0.8268952
868.024	0.90807257
868.193	1.07943206
868.363	1.07540506
868.532	1.19884183
868.701	1.14960402
868.87	1.09172688
869.04	1.05696777
869.209	1.07065752
869.378	1.23337778
869.547	1.15949148
869.716	1.13110259
869.885	1.25242322
870.055	1.28880379
870.224	1.25226548
870.393	1.31787838
870.562	1.48847046
870.731	1.47933005
870.9	1.38405018
871.069	1.40569482
871.238	1.46079831
871.407	1.3910863
871.576	1.35600847
871.745	1.36128622
871.914	1.28355724
872.083	1.18160559
872.251	1.20703317
872.42	1.19033804
872.589	1.0746538
872.758	1.04693978
872.927	0.95110863
873.096	0.99721473
873.264	0.93542471
873.433	0.77709714
873.602	0.65677532
873.771	0.57706878
873.939	0.45322274
874.108	0.35247983
874.277	0.28150888
874.445	0.26614424
874.614	0.30025778
874.783	0.35416384
874.951	0.40803104
875.12	0.24637761
875.288	0.13683594
875.457	0.08855294
875.625	-0.00813193
875.794	-0.21187218
875.962	-0.26708145
876.131	-0.13319582
876.299	-0.11283964
876.468	-0.11796161
876.636	-0.08147933
876.805	-0.18255037
876.973	-0.30428508
877.141	-0.22900051
877.31	-0.30859744
877.478	-0.12113517
877.647	-0.04115515
877.815	-0.32888158
877.983	-0.45967349
878.151	-0.52013202
878.32	-0.57058187
878.488	-0.45776857
878.656	-0.30473026
878.824	-0.28547025
878.992	-0.11905337
879.161	-0.0474035
879.329	0.20193576
879.497	0.26168509
879.665	0.34062977
879.833	0.47303956
880.001	0.41525321
880.169	0.14184902
880.337	0.23620843
880.505	0.27137424
880.673	0.21505548
880.841	0.30318324
881.009	0.24603893
881.177	0.01809077
881.345	0.41889255
881.513	0.60934758
881.681	0.57733436
881.849	0.70798487
882.017	0.69229161
882.185	0.67684185
882.352	0.41615321
882.52	0.03525925
882.688	0.0755734
882.856	-0.23431751
883.024	-0.29159429
883.191	-0.41810893
883.359	-0.93166597
883.527	-1.04944861
883.694	-0.87238185
883.862	-0.83782017
884.03	-0.86808315
884.197	-1.13780792
884.365	-0.96377851
884.533	-1.18211955
884.7	-1.11975763
884.868	-1.34966867
885.035	-1.3637284
885.203	-1.50530316
885.37	-1.80152725
885.538	-2.03297184
885.705	-2.15600128
885.873	-1.97320731
886.04	-1.86654328
886.208	-2.03259299
886.375	-1.89438112
886.542	-1.98371922
886.71	-2.06536123
886.877	-1.5238441
