Data from printpreto_Reflection_00003.txt Node
Date: Thu Apr 11 13:56:30 AEST 2024
User: uqkchene_local
Spectrometer: USB4E02642
Trigger mode: 4
Integration Time (sec): 2.541000E-2
Scans to average: 101
Electric dark correction enabled: true
Nonlinearity correction enabled: false
Boxcar width: 10
XAxis mode: Wavelengths
Number of Pixels in Spectrum: 3648
>>>>>Begin Spectral Data<<<<<
179.217	79.18827373
179.432	94.77203647
179.647	94.79696467
179.862	89.55406855
180.077	88.9716224
180.293	90.08099542
180.508	80.47944295
180.723	82.62862965
180.938	55.06842151
181.153	37.46876446
181.368	29.2628923
181.583	21.37978598
181.798	11.06427187
182.013	6.43479792
182.228	5.11460854
182.443	3.86081397
182.658	3.4731347
182.873	3.11095453
183.088	3.57031005
183.303	-0.12342035
183.518	-0.7845469
183.733	-0.66961744
183.948	-2.51432506
184.162	-1.80064909
184.377	-0.38337534
184.592	-0.1652038
184.807	-0.60572221
185.022	-0.54869243
185.237	-0.1436423
185.452	-0.73675776
185.667	-1.89320315
185.882	-1.92642616
186.096	-1.7760815
186.311	-1.05194149
186.526	-1.68703114
186.741	-2.44120454
186.956	-3.02097761
187.17	-4.37178038
187.385	-4.27528729
187.6	-4.54458738
187.815	-3.00318674
188.03	-2.24968071
188.244	-1.7596442
188.459	-2.14363256
188.674	-2.25572788
188.889	-4.24188146
189.103	-5.19165125
189.318	-4.52758042
189.533	-3.84550255
189.747	-4.04425556
189.962	-4.24751374
190.177	-3.73377707
190.391	-3.70236305
190.606	-4.59467142
190.821	-5.20239826
191.035	-5.58222885
191.25	-5.8103833
191.465	-6.24514136
191.679	-4.70946663
191.894	-4.46235815
192.109	-5.72125161
192.323	-5.94191245
192.538	-6.58062584
192.752	-7.59854976
192.967	-7.82219536
193.181	-8.10686176
193.396	-7.27896518
193.611	-6.87335166
193.825	-7.08077644
194.04	-8.12206069
194.254	-8.16795179
194.469	-7.99868891
194.683	-7.83059469
194.898	-8.58418151
195.112	-9.53194593
195.327	-9.90439114
195.541	-9.60905403
195.756	-10.14023509
195.97	-8.8363117
196.184	-8.28563669
196.399	-8.24843412
196.613	-7.5312162
196.828	-7.90417674
197.042	-6.83704487
197.257	-5.4226124
197.471	-5.67660232
197.685	-4.55582922
197.9	-4.2815052
198.114	-3.16607732
198.328	-3.72464482
198.543	-3.87890113
198.757	-4.36020869
198.971	-4.03043699
199.186	-2.43266639
199.4	-2.52698156
199.614	-1.26805383
199.829	-1.07691787
200.043	-0.37614887
200.257	0.17737285
200.471	-0.54563419
200.686	-0.69468737
200.9	-1.09097203
201.114	-0.04997722
201.328	0.20327099
201.543	-0.66726001
201.757	-1.70171617
201.971	-1.69451753
202.185	-3.21522145
202.399	-4.93486808
202.614	-6.12210349
202.828	-4.90588372
203.042	-3.88781927
203.256	-3.78782987
203.47	-4.44658046
203.684	-5.9703169
203.899	-5.57176211
204.113	-6.28802303
204.327	-5.73183319
204.541	-6.37171226
204.755	-4.93554551
204.969	-4.63351931
205.183	-4.19352109
205.397	-5.61392783
205.611	-5.25398174
205.825	-5.43879281
206.039	-5.16088113
206.253	-4.04283632
206.467	-4.56850078
206.681	-3.96832736
206.895	-2.32541469
207.109	-1.62522579
207.323	-2.10094308
207.537	-2.1496956
207.751	-1.66751777
207.965	-1.56143381
208.179	-2.36147763
208.393	-2.2389632
208.607	-3.1215903
208.821	-2.56070558
209.035	-1.67248488
209.249	-2.44206468
209.463	-2.63495052
209.677	-3.03014892
209.891	-2.1783747
210.104	-3.60374685
210.318	-2.98440876
210.532	-2.96604091
210.746	-3.04456639
210.96	-2.68867903
211.174	-2.54152115
211.387	-3.15189265
211.601	-3.16436802
211.815	-3.94528491
212.029	-5.56759616
212.243	-6.51854789
212.456	-6.89753361
212.67	-6.78935834
212.884	-6.60710849
213.098	-5.56273223
213.311	-5.37905105
213.525	-6.26020353
213.739	-5.28553642
213.953	-4.53190723
214.166	-4.65655673
214.38	-5.47184811
214.594	-5.09947436
214.807	-4.94850505
215.021	-5.16115256
215.235	-5.76055674
215.448	-5.40064545
215.662	-5.76880761
215.876	-6.08157891
216.089	-6.10932323
216.303	-5.3643471
216.516	-4.40216853
216.73	-3.37953684
216.944	-2.36487899
217.157	-1.64297968
217.371	-1.37549016
217.584	-1.62723329
217.798	-3.17419007
218.011	-3.86681289
218.225	-5.18802017
218.439	-6.5231001
218.652	-6.08657655
218.866	-5.78421827
219.079	-6.12869987
219.293	-6.8507683
219.506	-6.5330524
219.719	-6.61346778
219.933	-6.69586547
220.146	-6.66301057
220.36	-6.35431347
220.573	-6.47176242
220.787	-6.60555903
221	-5.97873693
221.214	-6.24629285
221.427	-8.07348233
221.64	-8.3295103
221.854	-8.87993663
222.067	-8.68185036
222.28	-7.88689346
222.494	-8.45903792
222.707	-7.58538825
222.92	-6.26795905
223.134	-7.13964636
223.347	-6.54089055
223.56	-5.4921462
223.774	-4.5537189
223.987	-3.94373546
224.2	-4.69015086
224.414	-4.53957904
224.627	-2.96668927
224.84	-2.83825458
225.053	-2.1482474
225.267	-1.72461363
225.48	-2.60752629
225.693	-1.97822454
225.906	-0.42759419
226.119	-0.28146204
226.333	-0.87638476
226.546	-1.29519085
226.759	-1.86576902
226.972	-0.77655761
227.185	-1.86206193
227.398	-2.23293962
227.612	-2.62336488
227.825	-3.27466853
228.038	-4.49447345
228.251	-6.15343646
228.464	-6.31195463
228.677	-5.49230594
228.89	-4.77357667
229.103	-6.38178025
229.316	-5.1276974
229.529	-5.14559036
229.743	-5.45946508
229.956	-5.38733654
230.169	-5.9168197
230.382	-5.9077959
230.595	-6.84819111
230.808	-5.59404854
231.021	-5.85675032
231.234	-4.3005756
231.447	-3.57716537
231.66	-3.42487884
231.872	-3.68032515
232.085	-2.35981378
232.298	-2.20239406
232.511	-1.26927032
232.724	-0.73593203
232.937	-1.88125491
233.15	-2.19118782
233.363	-2.5826011
233.576	-2.67035592
233.789	-4.37588513
234.002	-5.03944004
234.214	-5.903091
234.427	-5.12354258
234.64	-4.9416114
234.853	-5.31286128
235.066	-5.21932066
235.279	-6.67595225
235.491	-5.44797303
235.704	-7.06351846
235.917	-8.05374531
236.13	-8.36606353
236.342	-8.77710041
236.555	-9.79493018
236.768	-9.87803082
236.981	-10.81271235
237.193	-10.99912847
237.406	-10.28322634
237.619	-8.6211974
237.832	-8.36785454
238.044	-7.58238275
238.257	-6.70631603
238.47	-6.43110975
238.682	-5.52706772
238.895	-7.1420869
239.108	-6.58416918
239.32	-7.53433158
239.533	-6.72737693
239.746	-6.70135276
239.958	-7.43689987
240.171	-6.15587326
240.383	-6.33441263
240.596	-6.46756271
240.808	-5.71563156
241.021	-6.09889483
241.234	-6.03959849
241.446	-5.53584824
241.659	-4.95844237
241.871	-5.06190167
242.084	-6.4653881
242.296	-7.87044728
242.509	-9.28572351
242.721	-9.49982163
242.934	-8.91540289
243.146	-10.05013347
243.359	-8.86499801
243.571	-9.37501349
243.784	-8.70275827
243.996	-8.84486068
244.208	-8.4292042
244.421	-9.04533954
244.633	-8.75283545
244.846	-8.41487868
245.058	-7.34432478
245.27	-7.37828407
245.483	-6.44635403
245.695	-6.02103736
245.907	-5.18342903
246.12	-5.00517556
246.332	-4.42653216
246.544	-3.55699611
246.757	-3.12696372
246.969	-1.46855414
247.181	-1.22444152
247.394	-2.47122032
247.606	-1.86325057
247.818	-1.60214607
248.03	-2.13476363
248.243	-2.27911089
248.455	-3.20137594
248.667	-2.88359037
248.879	-2.2374659
249.092	-3.96691348
249.304	-3.64070181
249.516	-4.49676782
249.728	-5.11402675
249.94	-5.42447163
250.153	-5.13501658
250.365	-5.98043675
250.577	-5.44492202
250.789	-5.79415564
251.001	-6.51978767
251.213	-6.8792438
251.425	-7.3048783
251.637	-8.31133097
251.85	-6.84306161
252.062	-5.92578776
252.274	-6.52370958
252.486	-5.98745994
252.698	-6.31167343
252.91	-5.77607828
253.122	-6.14564959
253.334	-6.31623921
253.546	-5.82164072
253.758	-6.3767749
253.97	-5.81496969
254.182	-4.68122094
254.394	-5.64397317
254.606	-6.29576484
254.818	-6.34104675
255.03	-7.10561013
255.242	-7.72359175
255.454	-8.03207442
255.666	-7.38453076
255.877	-8.00753949
256.089	-8.37828019
256.301	-8.39752072
256.513	-9.87946035
256.725	-9.30991814
256.937	-9.56245604
257.149	-8.91107233
257.361	-7.41750816
257.572	-7.22198594
257.784	-6.21401508
257.996	-5.96183815
258.208	-6.26251841
258.42	-5.89798536
258.631	-6.60081599
258.843	-4.52757226
259.055	-4.3479809
259.267	-4.2967218
259.479	-3.80288622
259.69	-3.10346319
259.902	-2.71149124
260.114	-3.30563675
260.325	-3.08649416
260.537	-2.00566769
260.749	-1.77882299
260.961	-1.988511
261.172	-2.94840485
261.384	-3.3887247
261.596	-3.35817325
261.807	-3.60153463
262.019	-3.70224558
262.23	-4.27224729
262.442	-4.26619785
262.654	-3.87506942
262.865	-4.04678014
263.077	-3.84807235
263.288	-4.58991408
263.5	-5.2794024
263.712	-5.49181109
263.923	-5.72780561
264.135	-6.19010212
264.346	-6.72269552
264.558	-7.05076628
264.769	-8.45351411
264.981	-8.83703678
265.192	-9.83269773
265.404	-8.54904022
265.615	-7.8620109
265.827	-7.83944622
266.038	-7.51833581
266.25	-7.55430844
266.461	-7.74123909
266.673	-8.07346413
266.884	-7.98234924
267.095	-7.72352517
267.307	-7.47713334
267.518	-7.98259143
267.73	-7.92824981
267.941	-6.72857602
268.152	-6.63523422
268.364	-6.99117747
268.575	-6.6293978
268.786	-5.77059904
268.998	-4.90380294
269.209	-4.17774241
269.42	-3.56029353
269.632	-3.07241217
269.843	-2.69639455
270.054	-1.9642667
270.265	-1.30624143
270.477	-1.36291721
270.688	-1.40835874
270.899	-0.50498666
271.11	0.35029605
271.322	0.09448037
271.533	0.61846562
271.744	-0.14287423
271.955	-0.10654056
272.166	-0.28795569
272.378	-1.41112638
272.589	-0.90550163
272.8	-0.7535069
273.011	-1.16582942
273.222	-0.63743329
273.433	-0.77856306
273.644	0.22343485
273.856	0.44929505
274.067	-0.48930877
274.278	-1.17004064
274.489	-1.73792336
274.7	-2.57238923
274.911	-2.56681158
275.122	-2.84695302
275.333	-3.48118956
275.544	-4.00023798
275.755	-3.75130955
275.966	-4.45784265
276.177	-5.01472145
276.388	-5.28561262
276.599	-5.19929955
276.81	-3.71195654
277.021	-3.22280273
277.232	-3.18111302
277.443	-2.92900883
277.654	-3.39039733
277.865	-3.00789331
278.076	-4.22458976
278.287	-4.48231922
278.497	-3.20748699
278.708	-3.26189938
278.919	-3.1274377
279.13	-3.16276031
279.341	-3.6246702
279.552	-2.78904419
279.763	-2.92774239
279.973	-2.89973115
280.184	-2.5969434
280.395	-2.52879563
280.606	-1.95877869
280.817	-1.91503405
281.027	-1.96704162
281.238	-2.9903641
281.449	-3.93495371
281.66	-3.53690317
281.87	-3.30070919
282.081	-4.08544768
282.292	-3.16440467
282.503	-2.10773195
282.713	-1.91837201
282.924	-2.11607195
283.135	-1.56080602
283.345	-1.18569703
283.556	-0.80308121
283.767	-0.75547328
283.977	-1.22602643
284.188	-1.16847932
284.399	-1.51275244
284.609	-2.0481431
284.82	-0.94395456
285.03	-1.33489399
285.241	-1.06031927
285.451	-1.14091645
285.662	-0.95087905
285.873	-0.56238302
286.083	-0.43733164
286.294	-0.68928632
286.504	-0.27320154
286.715	-1.32571924
286.925	-1.32924769
287.136	-1.67394407
287.346	-2.05688188
287.557	-2.31952663
287.767	-3.29251769
287.978	-3.30902092
288.188	-2.95466903
288.399	-2.93075013
288.609	-1.95451136
288.819	-2.18960267
289.03	-1.99701868
289.24	-2.82091437
289.451	-1.90936225
289.661	-1.15874392
289.871	-0.92637726
290.082	-0.53595334
290.292	-0.47802574
290.502	-1.04533433
290.713	-0.78903664
290.923	-1.19666838
291.133	-0.51920103
291.344	-0.55292545
291.554	-0.59129371
291.764	-0.15189781
291.974	0.10673809
292.185	0.98107919
292.395	0.99162951
292.605	1.1527763
292.815	1.24478064
293.026	0.72172305
293.236	1.60266559
293.446	1.991073
293.656	2.30818902
293.866	2.24388114
294.077	1.9058411
294.287	2.05943217
294.497	2.06533604
294.707	2.31984938
294.917	2.70979031
295.127	2.80136505
295.337	3.30060792
295.548	3.1591178
295.758	3.27429918
295.968	3.62251072
296.178	3.60813408
296.388	3.88779682
296.598	4.05054692
296.808	4.02382497
297.018	4.0549203
297.228	4.36014333
297.438	4.64214336
297.648	4.72105603
297.858	4.85775801
298.068	4.86000216
298.278	4.97912016
298.488	5.20484978
298.698	5.32164064
298.908	5.39969573
299.118	5.47179125
299.328	5.50360103
299.538	5.61255769
299.748	5.66231394
299.957	5.70235799
300.167	5.81777312
300.377	5.7564118
300.587	5.80666504
300.797	5.76408576
301.007	5.73486124
301.217	5.85430391
301.426	5.93947212
301.636	5.93465662
301.846	5.92454059
302.056	5.92934342
302.266	5.92463119
302.475	5.97477394
302.685	5.99167903
302.895	5.99097301
303.105	5.99765779
303.314	6.00323116
303.524	5.97695477
303.734	6.00499169
303.944	5.99713604
304.153	5.96515948
304.363	6.00429632
304.573	5.96278189
304.782	6.00311881
304.992	6.01522709
305.202	6.03394646
305.411	6.03116879
305.621	6.03020649
305.831	6.03065373
306.04	6.02012156
306.25	6.03452102
306.459	6.04124263
306.669	6.07653137
306.878	6.08602431
307.088	6.09117137
307.298	6.09173078
307.507	6.10134907
307.717	6.10729112
307.926	6.12175944
308.136	6.11370938
308.345	6.12094124
308.555	6.13106149
308.764	6.12665051
308.974	6.13180518
309.183	6.13229042
309.392	6.13256076
309.602	6.13505181
309.811	6.14885837
310.021	6.12627789
310.23	6.12804881
310.44	6.13904351
310.649	6.1398912
310.858	6.12758187
311.068	6.1046661
311.277	6.09385303
311.486	6.09369648
311.696	6.09600589
311.905	6.08392978
312.114	6.09882954
312.324	6.09991119
312.533	6.10180889
312.742	6.09771065
312.952	6.0992863
313.161	6.09271866
313.37	6.10449577
313.579	6.10313715
313.789	6.1000876
313.998	6.09670235
314.207	6.0952521
314.416	6.10661046
314.625	6.10129188
314.835	6.08950771
315.044	6.08564772
315.253	6.098342
315.462	6.09153969
315.671	6.09772857
315.88	6.09311785
316.09	6.08576716
316.299	6.07952549
316.508	6.06367935
316.717	6.0552391
316.926	6.05434198
317.135	6.04701667
317.344	6.0457299
317.553	6.05107679
317.762	6.04288003
317.971	6.03737595
318.18	6.03597436
318.389	6.03985366
318.598	6.03169907
318.807	6.03441163
319.016	6.03093089
319.225	6.02899594
319.434	6.02029552
319.643	6.00713264
319.852	6.01109193
320.061	6.00524956
320.27	5.99884013
320.479	5.99151442
320.688	5.99195488
320.897	5.99052985
321.105	5.98708211
321.314	5.9826143
321.523	5.98677701
321.732	5.98288086
321.941	5.98188657
322.15	5.97241873
322.359	5.96863404
322.567	5.9700399
322.776	5.95879982
322.985	5.95589182
323.194	5.95133264
323.403	5.94534173
323.611	5.94033336
323.82	5.9409384
324.029	5.94018583
324.237	5.9361424
324.446	5.93056202
324.655	5.93501882
324.864	5.93768571
325.072	5.93358705
325.281	5.92894047
325.49	5.93213049
325.698	5.93069108
325.907	5.92918153
326.116	5.92926265
326.324	5.92516505
326.533	5.93028658
326.741	5.93166091
326.95	5.92292384
327.159	5.93134069
327.367	5.93274746
327.576	5.92730049
327.784	5.92780012
327.993	5.92264614
328.201	5.92241605
328.41	5.92114677
328.618	5.92270685
328.827	5.92651651
329.035	5.91947108
329.244	5.91677967
329.452	5.91507619
329.661	5.91886894
329.869	5.91495144
330.078	5.91519509
330.286	5.91240374
330.495	5.91102172
330.703	5.9048167
330.911	5.90076662
331.12	5.89455769
331.328	5.8921477
331.537	5.87962143
331.745	5.87761624
331.953	5.88050291
332.162	5.88314291
332.37	5.88961878
332.578	5.8881843
332.787	5.88684258
332.995	5.88327707
333.203	5.8792103
333.411	5.87562555
333.62	5.86936795
333.828	5.86992265
334.036	5.86570042
334.244	5.86401661
334.453	5.86119722
334.661	5.86195933
334.869	5.85972557
335.077	5.86246133
335.285	5.86129073
335.494	5.86086679
335.702	5.86578907
335.91	5.86637202
336.118	5.85917279
336.326	5.8584938
336.534	5.85574687
336.742	5.84854812
336.951	5.8486515
337.159	5.84697216
337.367	5.8463533
337.575	5.84614225
337.783	5.84820049
337.991	5.85075246
338.199	5.85170212
338.407	5.8513536
338.615	5.85183074
338.823	5.84874573
339.031	5.8413608
339.239	5.83911581
339.447	5.83679052
339.655	5.83483457
339.863	5.83606478
340.071	5.82844999
340.279	5.83491117
340.487	5.83696063
340.695	5.83388404
340.903	5.82888896
341.11	5.83385337
341.318	5.82726297
341.526	5.82328692
341.734	5.82196684
341.942	5.82187631
342.15	5.8194428
342.358	5.81641517
342.565	5.81525369
342.773	5.81650611
342.981	5.81438602
343.189	5.81478513
343.397	5.81695172
343.604	5.81409823
343.812	5.8164756
344.02	5.81396141
344.228	5.81507218
344.435	5.81872109
344.643	5.81075245
344.851	5.81226058
345.058	5.81233655
345.266	5.81256546
345.474	5.81020192
345.681	5.81148645
345.889	5.813435
346.097	5.8119757
346.304	5.80834552
346.512	5.80864482
346.72	5.80941554
346.927	5.8093663
347.135	5.80509092
347.342	5.80069506
347.55	5.79497965
347.758	5.7966317
347.965	5.79903426
348.173	5.79334886
348.38	5.79830092
348.588	5.79865715
348.795	5.7990672
349.003	5.79907413
349.21	5.79548013
349.418	5.79413194
349.625	5.78827173
349.833	5.78843774
350.04	5.78771479
350.247	5.78775269
350.455	5.78677557
350.662	5.78980597
350.87	5.7926151
351.077	5.79494386
351.284	5.79414099
351.492	5.7996724
351.699	5.80052762
351.906	5.8046242
352.114	5.79765058
352.321	5.793894
352.528	5.79062296
352.736	5.78628747
352.943	5.78411753
353.15	5.78374912
353.358	5.78455323
353.565	5.78745884
353.772	5.78748481
353.979	5.79955736
354.187	5.79707524
354.394	5.79563236
354.601	5.79571125
354.808	5.79355645
355.015	5.79221433
355.223	5.79077127
355.43	5.78808636
355.637	5.78975233
355.844	5.78347991
356.051	5.78595662
356.258	5.78572297
356.465	5.79275857
356.673	5.79245902
356.88	5.79523207
357.087	5.79560097
357.294	5.79873336
357.501	5.79691825
357.708	5.79726366
357.915	5.80004616
358.122	5.80064346
358.329	5.7931812
358.536	5.79260263
358.743	5.79344794
358.95	5.79222717
359.157	5.79729787
359.364	5.79278337
359.571	5.79105167
359.778	5.79427867
359.985	5.78972749
360.192	5.79368812
360.399	5.79672875
360.606	5.79753463
360.812	5.79703176
361.019	5.80388164
361.226	5.80437309
361.433	5.80762209
361.64	5.80479989
361.847	5.80772647
362.054	5.80649898
362.26	5.80451576
362.467	5.80633156
362.674	5.81109514
362.881	5.81232305
363.088	5.81257273
363.294	5.81486042
363.501	5.80914451
363.708	5.8129999
363.915	5.81210337
364.121	5.81096507
364.328	5.81143513
364.535	5.81106422
364.741	5.80852969
364.948	5.80957867
365.155	5.80776094
365.361	5.80167837
365.568	5.80218557
365.775	5.80010131
365.981	5.80007476
366.188	5.79387722
366.395	5.79607386
366.601	5.79521257
366.808	5.79098497
367.014	5.78921358
367.221	5.78899202
367.427	5.7901957
367.634	5.7905722
367.84	5.79622107
368.047	5.79625831
368.254	5.80281409
368.46	5.80361627
368.667	5.80385129
368.873	5.80432455
369.079	5.80467387
369.286	5.8041316
369.492	5.80520116
369.699	5.80815947
369.905	5.80688705
370.112	5.81053038
370.318	5.81188902
370.524	5.81669039
370.731	5.81580359
370.937	5.81722481
371.144	5.82115715
371.35	5.82002224
371.556	5.82222855
371.763	5.82236096
371.969	5.8245942
372.175	5.82490676
372.381	5.82324536
372.588	5.81816651
372.794	5.82018761
373	5.82460486
373.206	5.82322336
373.413	5.82399645
373.619	5.82605517
373.825	5.82562006
374.031	5.82480103
374.238	5.82620462
374.444	5.82416212
374.65	5.82551382
374.856	5.82722773
375.062	5.82863904
375.268	5.82794445
375.475	5.82853608
375.681	5.83253094
375.887	5.83043445
376.093	5.83162668
376.299	5.8208015
376.505	5.81620948
376.711	5.82067311
376.917	5.82382983
377.123	5.82206636
377.329	5.82376422
377.535	5.82640118
377.741	5.83177788
377.947	5.83138645
378.153	5.83272026
378.359	5.83582297
378.565	5.83951523
378.771	5.84770375
378.977	5.85074403
379.183	5.84924489
379.389	5.85327006
379.595	5.85547309
379.801	5.86049174
380.007	5.86070899
380.213	5.86549756
380.418	5.86880621
380.624	5.88319379
380.83	5.88869419
381.036	5.88855322
381.242	5.88579103
381.448	5.88904215
381.653	5.88440255
381.859	5.88839167
382.065	5.88809809
382.271	5.88949342
382.476	5.8936991
382.682	5.89664845
382.888	5.8984281
383.094	5.89444866
383.299	5.89047454
383.505	5.89525127
383.711	5.89736798
383.916	5.89777284
384.122	5.89849947
384.328	5.90186502
384.533	5.90203445
384.739	5.90176133
384.945	5.90119642
385.15	5.90503146
385.356	5.90241736
385.562	5.9059652
385.767	5.90605577
385.973	5.91090657
386.178	5.91038945
386.384	5.90355709
386.589	5.90707816
386.795	5.90701812
387	5.90737703
387.206	5.91018043
387.411	5.91025733
387.617	5.91540117
387.822	5.91585893
388.028	5.91775466
388.233	5.91868159
388.439	5.91644456
388.644	5.91556671
388.85	5.9178784
389.055	5.92412892
389.26	5.92802863
389.466	5.93030501
389.671	5.93444998
389.877	5.93833805
390.082	5.94404756
390.287	5.95090875
390.493	5.95256909
390.698	5.96081534
390.903	5.96346773
391.109	5.96735524
391.314	5.97133697
391.519	5.9721126
391.724	5.97539424
391.93	5.97693491
392.135	5.97728432
392.34	5.97934569
392.545	5.98181868
392.751	5.98596035
392.956	5.98808031
393.161	5.98716945
393.366	5.98482694
393.571	5.98308931
393.776	5.98432343
393.982	5.99118455
394.187	5.99113486
394.392	5.98800801
394.597	5.9866196
394.802	5.98937716
395.007	5.99207635
395.212	5.99333691
395.417	5.99552408
395.622	5.9952541
395.827	5.99865372
396.032	6.00113178
396.237	6.00136697
396.442	6.00582987
396.647	6.00828613
396.852	6.01424964
397.057	6.01504774
397.262	6.019223
397.467	6.0253164
397.672	6.02824448
397.877	6.02948667
398.082	6.03089311
398.287	6.03088606
398.492	6.03154141
398.697	6.03518824
398.902	6.03745511
399.107	6.03547594
399.311	6.03646559
399.516	6.03861951
399.721	6.03981615
399.926	6.04567446
400.131	6.04858367
400.336	6.05003732
400.54	6.05280658
400.745	6.05532202
400.95	6.0532445
401.155	6.05442847
401.359	6.05651344
401.564	6.05690922
401.769	6.05710033
401.974	6.06090466
402.178	6.0670953
402.383	6.06808576
402.588	6.07030423
402.792	6.07175339
402.997	6.07533261
403.202	6.07629448
403.406	6.08198969
403.611	6.08455062
403.815	6.08463421
404.02	6.08767545
404.225	6.08671744
404.429	6.08601026
404.634	6.08679313
404.838	6.08894593
405.043	6.09123704
405.247	6.09536414
405.452	6.09664302
405.656	6.1020123
405.861	6.10315484
406.065	6.10665705
406.27	6.10782088
406.474	6.10906728
406.679	6.11338708
406.883	6.11375138
407.088	6.118709
407.292	6.11884313
407.497	6.12212
407.701	6.12421273
407.905	6.12730717
408.11	6.12939256
408.314	6.13201998
408.518	6.13542231
408.723	6.13751694
408.927	6.14189662
409.131	6.14622047
409.336	6.14760406
409.54	6.15004921
409.744	6.15190166
409.949	6.15134057
410.153	6.15697624
410.357	6.15560349
410.561	6.15344215
410.766	6.15341597
410.97	6.1533538
411.174	6.15545057
411.378	6.15892307
411.582	6.16254175
411.787	6.16523973
411.991	6.16794985
412.195	6.16925884
412.399	6.17469725
412.603	6.17516314
412.807	6.17650488
413.011	6.1787821
413.215	6.1799405
413.419	6.18078716
413.624	6.18296642
413.828	6.18672391
414.032	6.19059854
414.236	6.19376499
414.44	6.19539381
414.644	6.20017718
414.848	6.20605338
415.052	6.2089186
415.256	6.21129845
415.46	6.21537768
415.664	6.21782937
415.868	6.21803161
416.072	6.22319956
416.275	6.22470364
416.479	6.229292
416.683	6.23195727
416.887	6.23651556
417.091	6.24006081
417.295	6.2433543
417.499	6.24764392
417.703	6.25057277
417.906	6.25087547
418.11	6.25350374
418.314	6.25651942
418.518	6.25873463
418.722	6.2590994
418.925	6.26161464
419.129	6.26717665
419.333	6.27158012
419.537	6.27667702
419.74	6.28029386
419.944	6.28179557
420.148	6.28592166
420.352	6.28673976
420.555	6.29157351
420.759	6.29191597
420.963	6.29374435
421.166	6.29378715
421.37	6.29521353
421.573	6.30280961
421.777	6.30332449
421.981	6.30579378
422.184	6.31189953
422.388	6.31355765
422.591	6.31499424
422.795	6.31960381
422.999	6.32288909
423.202	6.32765079
423.406	6.33023407
423.609	6.33263214
423.813	6.33549978
424.016	6.33990741
424.22	6.34622952
424.423	6.35076525
424.627	6.35015799
424.83	6.35200281
425.033	6.35574756
425.237	6.36050516
425.44	6.36223177
425.644	6.36773366
425.847	6.36462612
426.05	6.36610435
426.254	6.37145986
426.457	6.37326187
426.66	6.37516291
426.864	6.37876129
427.067	6.38213944
427.27	6.3878379
427.474	6.38778985
427.677	6.38931796
427.88	6.39331787
428.084	6.39519319
428.287	6.39359047
428.49	6.39429233
428.693	6.3978676
428.896	6.40564035
429.1	6.410415
429.303	6.41366078
429.506	6.41520241
429.709	6.42361198
429.912	6.42599913
430.116	6.43489104
430.319	6.44102817
430.522	6.44423856
430.725	6.44903441
430.928	6.45520619
431.131	6.45714829
431.334	6.45927689
431.537	6.46234716
431.74	6.46736089
431.943	6.47279476
432.146	6.47513376
432.349	6.48049335
432.552	6.48239095
432.755	6.48673315
432.958	6.48898037
433.161	6.48978664
433.364	6.49461264
433.567	6.50151567
433.77	6.50354872
433.973	6.50560374
434.176	6.50950806
434.379	6.51041797
434.582	6.51127898
434.785	6.51450209
434.988	6.51825985
435.19	6.51915538
435.393	6.52721009
435.596	6.53057893
435.799	6.53370618
436.002	6.53872627
436.205	6.54090582
436.407	6.54554705
436.61	6.54804063
436.813	6.55625884
437.016	6.55995531
437.218	6.56646338
437.421	6.57030393
437.624	6.57273988
437.827	6.57290672
438.029	6.57710684
438.232	6.58183494
438.435	6.58477945
438.637	6.58744876
438.84	6.59338093
439.043	6.59376241
439.245	6.59614389
439.448	6.60187839
439.65	6.60228672
439.853	6.60353067
440.056	6.60555052
440.258	6.60827794
440.461	6.61264428
440.663	6.61446988
440.866	6.61830279
441.068	6.6231302
441.271	6.62512275
441.473	6.62592952
441.676	6.63078184
441.878	6.63402968
442.081	6.63821555
442.283	6.64296369
442.486	6.64658461
442.688	6.6497657
442.89	6.65493074
443.093	6.65863006
443.295	6.6617239
443.498	6.66353214
443.7	6.66832634
443.902	6.67196463
444.105	6.67887695
444.307	6.68204303
444.509	6.68522904
444.712	6.69076037
444.914	6.69744968
445.116	6.70266885
445.319	6.70654698
445.521	6.71138814
445.723	6.7151307
445.925	6.71787547
446.128	6.7204977
446.33	6.72769424
446.532	6.72971101
446.734	6.73133891
446.936	6.73541674
447.139	6.7392378
447.341	6.74090796
447.543	6.74857753
447.745	6.75473108
447.947	6.75697299
448.149	6.76396946
448.351	6.76625172
448.553	6.76979608
448.755	6.77188429
448.958	6.77419427
449.16	6.77339771
449.362	6.77717504
449.564	6.78107687
449.766	6.78543943
449.968	6.78791284
450.17	6.79182456
450.372	6.7947928
450.574	6.79534504
450.776	6.80040154
450.978	6.80455907
451.179	6.80707616
451.381	6.81090607
451.583	6.81693317
451.785	6.82005851
451.987	6.82392031
452.189	6.82660415
452.391	6.82756434
452.593	6.83204526
452.795	6.83789675
452.996	6.84274712
453.198	6.84418026
453.4	6.85030105
453.602	6.85115547
453.804	6.85354832
454.005	6.85452611
454.207	6.85954318
454.409	6.86277115
454.611	6.86611086
454.812	6.8688644
455.014	6.87068618
455.216	6.87331774
455.417	6.87926854
455.619	6.88330404
455.821	6.88759559
456.022	6.89061269
456.224	6.89311156
456.426	6.89468515
456.627	6.89702223
456.829	6.89839757
457.031	6.90249737
457.232	6.90527231
457.434	6.90809589
457.635	6.90876175
457.837	6.91299209
458.038	6.91522193
458.24	6.91882018
458.441	6.92264107
458.643	6.92491989
458.844	6.92916343
459.046	6.93145613
459.247	6.93660394
459.449	6.93857869
459.65	6.94133574
459.852	6.94122969
460.053	6.94104809
460.254	6.94392502
460.456	6.94735092
460.657	6.9522236
460.859	6.95542247
461.06	6.96012666
461.261	6.96114708
461.463	6.96631307
461.664	6.97127846
461.865	6.9769783
462.066	6.97917247
462.268	6.98420152
462.469	6.98868744
462.67	6.99245705
462.872	6.99660283
463.073	6.99825422
463.274	7.00213399
463.475	7.00541684
463.676	7.01235203
463.878	7.01344541
464.079	7.01865787
464.28	7.02330802
464.481	7.02554422
464.682	7.03002759
464.883	7.03208486
465.085	7.03609313
465.286	7.03979513
465.487	7.04343467
465.688	7.04775619
465.889	7.05078057
466.09	7.05399817
466.291	7.05638725
466.492	7.0580723
466.693	7.06081577
466.894	7.06472624
467.095	7.0685725
467.296	7.07319838
467.497	7.07789415
467.698	7.08021841
467.899	7.08355409
468.1	7.08862714
468.301	7.09197505
468.502	7.09589938
468.703	7.10003998
468.903	7.10166685
469.104	7.10622225
469.305	7.11143698
469.506	7.11332983
469.707	7.11710092
469.908	7.11989123
470.109	7.12431244
470.309	7.12663853
470.51	7.13154252
470.711	7.1362774
470.912	7.1391438
471.112	7.14070906
471.313	7.14531115
471.514	7.14746779
471.715	7.1496913
471.915	7.1529079
472.116	7.15370495
472.317	7.15588459
472.517	7.15801496
472.718	7.16309558
472.919	7.16863782
473.119	7.17342039
473.32	7.17764872
473.521	7.17939983
473.721	7.18451247
473.922	7.18984868
474.122	7.19245063
474.323	7.19487815
474.523	7.19820211
474.724	7.20188731
474.925	7.20445483
475.125	7.20950597
475.326	7.21327096
475.526	7.21608239
475.727	7.22128082
475.927	7.22605136
476.127	7.2289937
476.328	7.23296652
476.528	7.23738864
476.729	7.24132048
476.929	7.24371096
477.13	7.24736293
477.33	7.25327156
477.53	7.2567944
477.731	7.25980584
477.931	7.26572139
478.131	7.26726461
478.332	7.271178
478.532	7.27599292
478.732	7.28083078
478.933	7.28453878
479.133	7.28962025
479.333	7.29371988
479.533	7.29819474
479.734	7.30212718
479.934	7.3050917
480.134	7.30837412
480.334	7.31420328
480.534	7.31892905
480.735	7.3231169
480.935	7.32869132
481.135	7.33399204
481.335	7.3359008
481.535	7.33856358
481.735	7.34190928
481.935	7.34864675
482.136	7.35170826
482.336	7.35915228
482.536	7.36457341
482.736	7.36599967
482.936	7.37060082
483.136	7.37595858
483.336	7.3792203
483.536	7.38275164
483.736	7.38749409
483.936	7.3921876
484.136	7.3982442
484.336	7.4031527
484.536	7.40751513
484.736	7.41149139
484.936	7.41526453
485.135	7.42037702
485.335	7.42306413
485.535	7.42797953
485.735	7.43121601
485.935	7.43767182
486.135	7.44186719
486.335	7.44649041
486.534	7.4495815
486.734	7.45560969
486.934	7.46317809
487.134	7.46801466
487.334	7.47162306
487.533	7.47855139
487.733	7.48274724
487.933	7.48880772
488.133	7.49319976
488.332	7.49562119
488.532	7.49977942
488.732	7.50438752
488.931	7.51075601
489.131	7.51669964
489.331	7.51983582
489.53	7.52555798
489.73	7.52938273
489.93	7.53483809
490.129	7.53808387
490.329	7.5405905
490.528	7.54396904
490.728	7.54871511
490.928	7.55113705
491.127	7.55442689
491.327	7.55949847
491.526	7.56451725
491.726	7.56829617
491.925	7.57456866
492.125	7.57887152
492.324	7.58411523
492.524	7.5917979
492.723	7.5963176
492.922	7.60005929
493.122	7.60376001
493.321	7.60692863
493.521	7.61235447
493.72	7.61709828
493.919	7.62290494
494.119	7.62843281
494.318	7.63439989
494.517	7.64103389
494.717	7.64661292
494.916	7.64971235
495.115	7.65178775
495.315	7.65694461
495.514	7.66124473
495.713	7.66632428
495.912	7.67011019
496.112	7.67322022
496.311	7.67631512
496.51	7.68100041
496.709	7.6832111
496.908	7.6875411
497.108	7.69386774
497.307	7.69967994
497.506	7.70564662
497.705	7.71010593
497.904	7.71460371
498.103	7.72239561
498.302	7.72670685
498.501	7.73076634
498.701	7.73459798
498.9	7.73921497
499.099	7.74627234
499.298	7.75462434
499.497	7.76072792
499.696	7.76696791
499.895	7.77181353
500.094	7.77822681
500.293	7.78297093
500.492	7.78830199
500.691	7.79251951
500.89	7.79938956
501.088	7.80563545
501.287	7.81045109
501.486	7.81597895
501.685	7.82155679
501.884	7.8287095
502.083	7.83561566
502.282	7.83901442
502.481	7.84420502
502.679	7.85039458
502.878	7.8567312
503.077	7.86205437
503.276	7.86639574
503.475	7.87231408
503.673	7.8784532
503.872	7.88278297
504.071	7.88760783
504.27	7.89260839
504.468	7.8991525
504.667	7.90567651
504.866	7.91182191
505.064	7.91643538
505.263	7.92206972
505.462	7.92745681
505.66	7.93304299
505.859	7.93938697
506.058	7.94287081
506.256	7.94793758
506.455	7.9543783
506.653	7.96028467
506.852	7.96531109
507.05	7.96975645
507.249	7.97538177
507.448	7.98022347
507.646	7.98639288
507.845	7.99087517
508.043	7.99572705
508.242	8.00009122
508.44	8.00539633
508.638	8.01203071
508.837	8.01819493
509.035	8.02371738
509.234	8.03076884
509.432	8.03793703
509.631	8.04337481
509.829	8.04924825
510.027	8.0557253
510.226	8.06155225
510.424	8.06674134
510.622	8.07137555
510.821	8.07575805
511.019	8.0814754
511.217	8.08955033
511.415	8.09541021
511.614	8.10241754
511.812	8.10700078
512.01	8.1121147
512.208	8.11901171
512.407	8.12834389
512.605	8.13453182
512.803	8.14137462
513.001	8.14787414
513.199	8.15341578
513.398	8.15947014
513.596	8.16477505
513.794	8.17164066
513.992	8.17422942
514.19	8.18078162
514.388	8.18825918
514.586	8.19799012
514.784	8.20428388
514.982	8.21148844
515.18	8.21975818
515.378	8.22487294
515.576	8.23191087
515.774	8.23886127
515.972	8.24724562
516.17	8.25424777
516.368	8.26068898
516.566	8.26738078
516.764	8.27373511
516.962	8.28029298
517.16	8.28658653
517.358	8.29413464
517.556	8.30023184
517.754	8.3077048
517.952	8.31453328
518.149	8.32441457
518.347	8.33111265
518.545	8.33823196
518.743	8.34327292
518.941	8.35078483
519.138	8.36052295
519.336	8.3662217
519.534	8.37308973
519.732	8.37916684
519.929	8.3872681
520.127	8.39351924
520.325	8.40156239
520.523	8.40963271
520.72	8.41642869
520.918	8.42504478
521.116	8.43126598
521.313	8.43816904
521.511	8.44333124
521.709	8.45067111
521.906	8.45824826
522.104	8.46540925
522.301	8.47035597
522.499	8.47559773
522.696	8.4815083
522.894	8.49005356
523.092	8.49563842
523.289	8.5002269
523.487	8.50633941
523.684	8.51300022
523.882	8.52027457
524.079	8.52847495
524.276	8.5348799
524.474	8.54273354
524.671	8.54950085
524.869	8.55693949
525.066	8.56373697
525.264	8.57193804
525.461	8.57889532
525.658	8.58940881
525.856	8.59553502
526.053	8.60100337
526.25	8.60813783
526.448	8.61758955
526.645	8.62520118
526.842	8.63303287
527.039	8.63703244
527.237	8.64472249
527.434	8.65212297
527.631	8.66116724
527.828	8.67040885
528.026	8.67793074
528.223	8.68194127
528.42	8.68893699
528.617	8.69515439
528.814	8.70224718
529.012	8.70897579
529.209	8.71602395
529.406	8.72341314
529.603	8.73005059
529.8	8.73772655
529.997	8.74482009
530.194	8.75251241
530.391	8.75984146
530.588	8.76707601
530.785	8.77517797
530.982	8.78165847
531.179	8.78796844
531.376	8.79427254
531.573	8.8021571
531.77	8.80883371
531.967	8.81293791
532.164	8.82101141
532.361	8.82877482
532.558	8.83571429
532.755	8.84031256
532.952	8.84575229
533.149	8.85211377
533.346	8.8581349
533.543	8.86468239
533.739	8.87215484
533.936	8.87559222
534.133	8.88126137
534.33	8.88612443
534.527	8.89146519
534.723	8.89881134
534.92	8.9041824
535.117	8.91146792
535.314	8.92071897
535.51	8.92773427
535.707	8.93460066
535.904	8.94094943
536.1	8.94919116
536.297	8.95397364
536.494	8.9600349
536.69	8.96648492
536.887	8.97600935
537.084	8.98128909
537.28	8.98855608
537.477	8.99360361
537.674	8.99927953
537.87	9.00430263
538.067	9.01199824
538.263	9.02055182
538.46	9.02982379
538.656	9.0367426
538.853	9.04218803
539.049	9.0477551
539.246	9.05526685
539.442	9.06078441
539.639	9.06858409
539.835	9.07489762
540.032	9.08381013
540.228	9.09063233
540.424	9.09887186
540.621	9.10624985
540.817	9.11365467
541.014	9.11993585
541.21	9.12880292
541.406	9.13528846
541.603	9.14362061
541.799	9.15179086
541.995	9.16006432
542.191	9.1662839
542.388	9.17466095
542.584	9.1821473
542.78	9.19131222
542.976	9.19934058
543.173	9.20914391
543.369	9.2166928
543.565	9.22550297
543.761	9.23231899
543.957	9.2394137
544.154	9.24420411
544.35	9.25318385
544.546	9.2597106
544.742	9.26773244
544.938	9.27572363
545.134	9.28264298
545.33	9.29138555
545.526	9.29864689
545.722	9.30681104
545.919	9.31331541
546.115	9.3192251
546.311	9.32854747
546.507	9.33577789
546.703	9.34065519
546.899	9.34817252
547.095	9.35522991
547.29	9.36295752
547.486	9.36968686
547.682	9.37656821
547.878	9.38443468
548.074	9.38949608
548.27	9.39655983
548.466	9.40359319
548.662	9.41150818
548.858	9.41944779
549.053	9.42686978
549.249	9.43307865
549.445	9.44036953
549.641	9.45013333
549.837	9.45613481
550.032	9.46404471
550.228	9.47356217
550.424	9.48017919
550.62	9.48627006
550.815	9.49438772
551.011	9.50039979
551.207	9.50768554
551.402	9.51391813
551.598	9.52142047
551.794	9.52701692
551.989	9.53312812
552.185	9.542421
552.381	9.55086111
552.576	9.5558004
552.772	9.56378222
552.967	9.56967676
553.163	9.57549989
553.359	9.58352628
553.554	9.58946871
553.75	9.59416466
553.945	9.60104892
554.141	9.60793783
554.336	9.6153151
554.532	9.62105901
554.727	9.62803055
554.922	9.63596439
555.118	9.64244846
555.313	9.64931087
555.509	9.654728
555.704	9.6608775
555.899	9.66785975
556.095	9.67621458
556.29	9.68345338
556.486	9.69195424
556.681	9.69886716
556.876	9.70528699
557.071	9.71350439
557.267	9.72139817
557.462	9.72724345
557.657	9.73309709
557.853	9.73925306
558.048	9.74814153
558.243	9.75491597
558.438	9.76020653
558.633	9.76876413
558.829	9.77738524
559.024	9.78411939
559.219	9.79225944
559.414	9.79878646
559.609	9.8070929
559.804	9.81585385
559.999	9.8232839
560.194	9.82994531
560.39	9.83604169
560.585	9.84348972
560.78	9.85344106
560.975	9.85993236
561.17	9.8666554
561.365	9.87176526
561.56	9.88045557
561.755	9.88853876
561.95	9.89790907
562.145	9.90495685
562.34	9.91145404
562.535	9.91968329
562.729	9.92740616
562.924	9.9320885
563.119	9.94080719
563.314	9.9470113
563.509	9.95412445
563.704	9.96145617
563.899	9.96649794
564.093	9.97408476
564.288	9.98152196
564.483	9.99057432
564.678	9.99644996
564.873	10.00056028
565.067	10.00862475
565.262	10.01374867
565.457	10.02144263
565.652	10.02837603
565.846	10.03439753
566.041	10.03871306
566.236	10.04446497
566.43	10.05037783
566.625	10.05733548
566.82	10.06316102
567.014	10.07186726
567.209	10.07559761
567.404	10.08383463
567.598	10.08900798
567.793	10.09532645
567.987	10.10090836
568.182	10.10784162
568.376	10.11256941
568.571	10.11709868
568.765	10.12001564
568.96	10.12678333
569.154	10.1321876
569.349	10.14184381
569.543	10.15100659
569.738	10.15866197
569.932	10.16750476
570.127	10.17520049
570.321	10.18200637
570.515	10.19064064
570.71	10.19624349
570.904	10.20336193
571.098	10.20796791
571.293	10.21836154
571.487	10.22375519
571.681	10.23046096
571.876	10.23791571
572.07	10.24656326
572.264	10.25175097
572.458	10.26032455
572.653	10.26849926
572.847	10.27568701
573.041	10.28227857
573.235	10.29143858
573.43	10.2921365
573.624	10.29735781
573.818	10.30428392
574.012	10.31030119
574.206	10.31780445
574.4	10.32761007
574.594	10.33463864
574.788	10.34189268
574.983	10.34787598
575.177	10.35493892
575.371	10.35697536
575.565	10.36304733
575.759	10.37256899
575.953	10.37997719
576.147	10.38522352
576.341	10.39053738
576.535	10.39927354
576.729	10.40199941
576.923	10.41050615
577.117	10.41702332
577.31	10.4206647
577.504	10.43046385
577.698	10.43614104
577.892	10.4425087
578.086	10.44663762
578.28	10.45237672
578.474	10.4543441
578.668	10.45765245
578.861	10.46332139
579.055	10.46932176
579.249	10.47383395
579.443	10.48018725
579.636	10.48612121
579.83	10.49130641
580.024	10.49560804
580.218	10.49964099
580.411	10.50778765
580.605	10.50998607
580.799	10.51958722
580.992	10.5262738
581.186	10.53216179
581.38	10.53826288
581.573	10.54350271
581.767	10.55051566
581.961	10.55315443
582.154	10.56264318
582.348	10.5694941
582.541	10.57585553
582.735	10.58195166
582.928	10.58539556
583.122	10.59415855
583.315	10.60369102
583.509	10.61001351
583.702	10.61624891
583.896	10.61963867
584.089	10.62520365
584.283	10.63429087
584.476	10.64030444
584.67	10.64742899
584.863	10.65169725
585.056	10.6572271
585.25	10.66259658
585.443	10.66775035
585.636	10.67345542
585.83	10.67680459
586.023	10.68452018
586.216	10.69025719
586.41	10.69609265
586.603	10.70340336
586.796	10.71187861
586.989	10.72167061
587.183	10.72381879
587.376	10.72989994
587.569	10.73736432
587.762	10.74300319
587.955	10.7508614
588.149	10.75616249
588.342	10.75841665
588.535	10.76422063
588.728	10.77102364
588.921	10.77860977
589.114	10.78568464
589.307	10.79436749
589.5	10.7988791
589.693	10.80730735
589.886	10.81494979
590.08	10.81939447
590.273	10.82540435
590.466	10.82986177
590.659	10.83448281
590.852	10.83885638
591.044	10.8443065
591.237	10.85396759
591.43	10.85605091
591.623	10.85873911
591.816	10.86567795
592.009	10.87007123
592.202	10.87672826
592.395	10.88597905
592.588	10.88975439
592.781	10.89266535
592.973	10.89772901
593.166	10.8988886
593.359	10.90356735
593.552	10.90952295
593.745	10.91494043
593.937	10.92182264
594.13	10.92639788
594.323	10.92920184
594.515	10.93216607
594.708	10.94108312
594.901	10.94476079
595.094	10.94904528
595.286	10.9517208
595.479	10.9568891
595.672	10.9631423
595.864	10.9682089
596.057	10.97745543
596.249	10.98193663
596.442	10.98521476
596.635	10.99101121
596.827	10.99699835
597.02	11.00290468
597.212	11.00774191
597.405	11.01297024
597.597	11.02087273
597.79	11.02517861
597.982	11.02688247
598.175	11.03361183
598.367	11.04051731
598.559	11.04903934
598.752	11.0494914
598.944	11.05675098
599.137	11.06214239
599.329	11.06428377
599.521	11.07171596
599.714	11.07504472
599.906	11.07909202
600.098	11.07952933
600.291	11.08464404
600.483	11.09169864
600.675	11.09895932
600.868	11.10696331
601.06	11.10963109
601.252	11.11787724
601.444	11.12245761
601.637	11.12598694
601.829	11.13176181
602.021	11.13720774
602.213	11.14358956
602.405	11.14689813
602.597	11.15156893
602.789	11.15768243
602.982	11.16218844
603.174	11.16711077
603.366	11.1745461
603.558	11.17757387
603.75	11.18827969
603.942	11.19379027
604.134	11.19862669
604.326	11.20304217
604.518	11.20530702
604.71	11.20735884
604.902	11.20837565
605.094	11.2137939
605.286	11.21593809
605.478	11.2181084
605.67	11.22018578
605.862	11.22311009
606.054	11.22993234
606.246	11.23423935
606.437	11.24044494
606.629	11.24503915
606.821	11.25059726
607.013	11.25134492
607.205	11.25828145
607.397	11.26306565
607.588	11.26917915
607.78	11.27285241
607.972	11.27684287
608.164	11.28085342
608.355	11.28706448
608.547	11.29120204
608.739	11.29879235
608.93	11.30607605
609.122	11.31042536
609.314	11.31789872
609.505	11.32220138
609.697	11.32857843
609.889	11.33373212
610.08	11.33833504
610.272	11.34248791
610.463	11.34577961
610.655	11.34992738
610.847	11.35165651
611.038	11.35795434
611.23	11.35766093
611.421	11.36420205
611.613	11.36884812
611.804	11.37275357
611.996	11.37998332
612.187	11.38864253
612.379	11.39026936
612.57	11.39850978
612.761	11.40127338
612.953	11.40608965
613.144	11.41134265
613.336	11.41239124
613.527	11.41903019
613.718	11.42542776
613.91	11.42750746
614.101	11.43060676
614.292	11.43837371
614.483	11.44469576
614.675	11.44985564
614.866	11.46047039
615.057	11.46455572
615.248	11.47270207
615.44	11.47337193
615.631	11.47682315
615.822	11.4783212
616.013	11.48195463
616.204	11.48492183
616.396	11.49085816
616.587	11.49289892
616.778	11.49568537
616.969	11.49847434
617.16	11.50189308
617.351	11.51057074
617.542	11.51628162
617.733	11.52131022
617.924	11.52804714
618.115	11.53310522
618.306	11.53502333
618.497	11.5390156
618.688	11.54322188
618.879	11.54260107
619.07	11.5508279
619.261	11.55479229
619.452	11.55767668
619.643	11.55999851
619.834	11.56347377
620.025	11.56352408
620.216	11.56775832
620.407	11.57254734
620.597	11.57704182
620.788	11.58416792
620.979	11.58751233
621.17	11.59411183
621.361	11.59726069
621.551	11.6003786
621.742	11.60329719
621.933	11.60998011
622.124	11.61542686
622.314	11.61653713
622.505	11.62200124
622.696	11.62740059
622.886	11.63255693
623.077	11.6338423
623.268	11.63743802
623.458	11.64573904
623.649	11.65059178
623.84	11.6575942
624.03	11.66511165
624.221	11.67135635
624.411	11.67946029
624.602	11.68193915
624.792	11.68813243
624.983	11.69961851
625.173	11.70035223
625.364	11.70389131
625.554	11.70783985
625.745	11.71206593
625.935	11.71333651
626.126	11.7188997
626.316	11.72573234
626.507	11.72666236
626.697	11.73138144
626.887	11.73650745
627.078	11.74289491
627.268	11.74895613
627.458	11.75377909
627.649	11.76363772
627.839	11.76680979
628.029	11.77314824
628.22	11.77630791
628.41	11.77593504
628.6	11.78212717
628.79	11.78633885
628.981	11.78780966
629.171	11.79615006
629.361	11.80024499
629.551	11.80859977
629.741	11.81258238
629.932	11.81672568
630.122	11.81790433
630.312	11.82217293
630.502	11.82890941
630.692	11.83081646
630.882	11.83573439
631.072	11.84120476
631.262	11.84357775
631.452	11.85002663
631.642	11.85208189
631.832	11.86095784
632.022	11.86545558
632.212	11.86986344
632.402	11.87999853
632.592	11.88455418
632.782	11.887605
632.972	11.8891965
633.162	11.89247686
633.352	11.8980713
633.542	11.89919915
633.732	11.9057724
633.922	11.90933381
634.111	11.914896
634.301	11.91658597
634.491	11.92104563
634.681	11.92468694
634.871	11.92567312
635.06	11.93265211
635.25	11.93937567
635.44	11.93791029
635.63	11.94294462
635.819	11.94383675
636.009	11.9444543
636.199	11.94803718
636.388	11.95227032
636.578	11.96022378
636.768	11.96294814
636.957	11.96597427
637.147	11.96973176
637.337	11.97298336
637.526	11.97572183
637.716	11.98088655
637.905	11.98593504
638.095	11.99202078
638.284	12.00160443
638.474	12.00585248
638.663	12.01404191
638.853	12.01945304
639.042	12.0213706
639.232	12.02342005
639.421	12.03212572
639.611	12.036669
639.8	12.04448184
639.99	12.05122336
640.179	12.05722981
640.368	12.05633679
640.558	12.06101174
640.747	12.06821114
640.936	12.07261358
641.126	12.07564755
641.315	12.07824209
641.504	12.08334567
641.694	12.08502849
641.883	12.09109153
642.072	12.09448571
642.261	12.09492355
642.451	12.1018117
642.64	12.10573242
642.829	12.1099044
643.018	12.11308554
643.207	12.12071119
643.397	12.12041325
643.586	12.12286232
643.775	12.12708108
643.964	12.13048813
644.153	12.1352468
644.342	12.13967424
644.531	12.14511646
644.72	12.1491524
644.909	12.15687473
645.098	12.16458615
645.287	12.17285966
645.476	12.18036576
645.665	12.18190958
645.854	12.18415143
646.043	12.19051856
646.232	12.19413198
646.421	12.19349905
646.61	12.19659992
646.799	12.20123936
646.988	12.20467514
647.177	12.20557575
647.365	12.21627747
647.554	12.22515386
647.743	12.23250307
647.932	12.23800663
648.121	12.243481
648.309	12.24709963
648.498	12.24844692
648.687	12.24502754
648.876	12.24941472
649.064	12.25242208
649.253	12.25895893
649.442	12.26144895
649.63	12.26914315
649.819	12.27715752
650.008	12.27916591
650.196	12.2851438
650.385	12.28936039
650.574	12.29027595
650.762	12.2981665
650.951	12.30508214
651.139	12.3087747
651.328	12.3111865
651.516	12.31339998
651.705	12.31437813
651.893	12.32246509
652.082	12.32018193
652.27	12.32599564
652.459	12.32847723
652.647	12.34337614
652.836	12.34997371
653.024	12.36034523
653.213	12.35637025
653.401	12.36196412
653.589	12.36473883
653.778	12.3670412
653.966	12.37329649
654.154	12.37857229
654.343	12.38464143
654.531	12.38845644
654.719	12.39145577
654.908	12.39068785
655.096	12.39826077
655.284	12.4065793
655.472	12.40955662
655.661	12.41407792
655.849	12.41180459
656.037	12.42115492
656.225	12.42403361
656.413	12.42588393
656.601	12.4262496
656.79	12.4273789
656.978	12.42670309
657.166	12.43562339
657.354	12.44028103
657.542	12.44798836
657.73	12.45158147
657.918	12.4558343
658.106	12.46079028
658.294	12.46573209
658.482	12.47365336
658.67	12.48084193
658.858	12.4866419
659.046	12.49341697
659.234	12.49264383
659.422	12.49486841
659.61	12.49625905
659.798	12.50699782
659.986	12.51380993
660.173	12.51957052
660.361	12.52509422
660.549	12.53155958
660.737	12.53331423
660.925	12.53361436
661.113	12.5379331
661.3	12.53947307
661.488	12.54579032
661.676	12.55044576
661.864	12.55237602
662.051	12.55877308
662.239	12.56541269
662.427	12.56882472
662.614	12.5694405
662.802	12.58040581
662.99	12.58271409
663.177	12.58824217
663.365	12.59483324
663.553	12.602456
663.74	12.60354782
663.928	12.60506494
664.115	12.60704415
664.303	12.61240286
664.49	12.61724802
664.678	12.62547968
664.866	12.6352783
665.053	12.64049379
665.24	12.64956575
665.428	12.65078215
665.615	12.65712143
665.803	12.66143612
665.99	12.66282351
666.178	12.6628042
666.365	12.66660592
666.552	12.67123528
666.74	12.6670909
666.927	12.66871604
667.114	12.67398141
667.302	12.67740461
667.489	12.68092953
667.676	12.68540652
667.864	12.68884503
668.051	12.69588375
668.238	12.70365898
668.425	12.70355136
668.613	12.70420727
668.8	12.70403744
668.987	12.70830746
669.174	12.71060928
669.361	12.71666633
669.548	12.72162182
669.736	12.73018048
669.923	12.73053038
670.11	12.74218623
670.297	12.74772381
670.484	12.75374381
670.671	12.76607808
670.858	12.76927854
671.045	12.77229337
671.232	12.77943464
671.419	12.78334559
671.606	12.78681307
671.793	12.79380534
671.98	12.7949404
672.167	12.79662763
672.354	12.80026039
672.541	12.80719053
672.728	12.81630981
672.915	12.82013162
673.101	12.81613951
673.288	12.81683723
673.475	12.82274351
673.662	12.82111964
673.849	12.83553408
674.035	12.83755274
674.222	12.83985452
674.409	12.84226773
674.596	12.84263835
674.783	12.85387205
674.969	12.86148375
675.156	12.86037498
675.343	12.86477466
675.529	12.86868243
675.716	12.86741839
675.903	12.87774432
676.089	12.88638003
676.276	12.89483311
676.462	12.9002608
676.649	12.90087142
676.836	12.90525534
677.022	12.9208417
677.209	12.93327095
677.395	12.93261101
677.582	12.93737514
677.768	12.93256981
677.955	12.93515241
678.141	12.94211205
678.328	12.95020012
678.514	12.95504918
678.701	12.95490718
678.887	12.95507226
679.073	12.96413405
679.26	12.96601092
679.446	12.9720337
679.632	12.97967098
679.819	12.98787671
680.005	12.98835563
680.191	12.9912367
680.378	12.99017678
680.564	12.99752267
680.75	12.9972587
680.936	13.0024383
681.123	13.00217803
681.309	13.00755749
681.495	13.01508304
681.681	13.02249706
681.867	13.02650169
682.054	13.03142499
682.24	13.02889902
682.426	13.03463937
682.612	13.03683692
682.798	13.04200596
682.984	13.04828159
683.17	13.06039856
683.356	13.06441853
683.542	13.07162366
683.728	13.07147294
683.914	13.07577844
684.1	13.08483059
684.286	13.08993326
684.472	13.09608236
684.658	13.11104169
684.844	13.11257588
685.03	13.11976176
685.216	13.1283085
685.402	13.14003257
685.588	13.1498514
685.774	13.15887299
685.96	13.16178188
686.145	13.16944451
686.331	13.17372307
686.517	13.17971578
686.703	13.18151448
686.889	13.18583929
687.074	13.18022762
687.26	13.18986102
687.446	13.1926899
687.631	13.19577884
687.817	13.19844102
688.003	13.19827731
688.189	13.20702348
688.374	13.20832195
688.56	13.21107912
688.745	13.21024133
688.931	13.206062
689.117	13.20429326
689.302	13.20009635
689.488	13.19895881
689.673	13.1973565
689.859	13.19751343
690.044	13.20143654
690.23	13.20226358
690.415	13.20655869
690.601	13.21283298
690.786	13.2088208
690.972	13.21197988
691.157	13.20563137
691.343	13.20388217
691.528	13.21111035
691.713	13.21436399
691.899	13.21872102
692.084	13.22757869
692.269	13.2258201
692.455	13.22221578
692.64	13.22385084
692.825	13.22621387
693.011	13.23122429
693.196	13.23419187
693.381	13.2401637
693.566	13.23643264
693.752	13.2396241
693.937	13.24514724
694.122	13.245595
694.307	13.24395031
694.492	13.23932377
694.678	13.23871192
694.863	13.24472305
695.048	13.24737255
695.233	13.24891055
695.418	13.24109416
695.603	13.24677531
695.788	13.23973732
695.973	13.2285308
696.158	13.23433404
696.343	13.23337952
696.528	13.23721052
696.713	13.23708687
696.898	13.23778935
697.083	13.23915053
697.268	13.22820912
697.453	13.23091296
697.638	13.23639402
697.823	13.22796608
698.008	13.23072935
698.192	13.22853821
698.377	13.23450598
698.562	13.23506382
698.747	13.23213611
698.932	13.23322142
699.117	13.23113094
699.301	13.2295816
699.486	13.22272212
699.671	13.22575222
699.856	13.22538854
700.04	13.21476241
700.225	13.2177952
700.41	13.21337299
700.594	13.20617526
700.779	13.20241533
700.964	13.19874569
701.148	13.199708
701.333	13.19907733
701.517	13.19276757
701.702	13.190839
701.887	13.18399008
702.071	13.18277972
702.256	13.17953944
702.44	13.17725907
702.625	13.16724736
702.809	13.15549025
702.994	13.15381593
703.178	13.15127037
703.362	13.14411766
703.547	13.14038998
703.731	13.13356098
703.916	13.1320526
704.1	13.1250888
704.284	13.12089213
704.469	13.12021496
704.653	13.10870641
704.837	13.10493973
705.022	13.10271981
705.206	13.10019129
705.39	13.09844936
705.575	13.08965115
705.759	13.08401322
705.943	13.07999956
706.127	13.06320271
706.311	13.05464583
706.496	13.04902007
706.68	13.0477989
706.864	13.04270944
707.048	13.03849384
707.232	13.03345254
707.416	13.02994589
707.6	13.02423152
707.785	13.01901556
707.969	13.01170277
708.153	12.99975465
708.337	12.99594344
708.521	12.99076836
708.705	12.98141117
708.889	12.96679024
709.073	12.95746056
709.257	12.94664592
709.441	12.94725236
709.624	12.9445534
709.808	12.93557681
709.992	12.93568034
710.176	12.92780526
710.36	12.92493635
710.544	12.91382737
710.728	12.90128402
710.912	12.89552902
711.095	12.88943335
711.279	12.87589775
711.463	12.87501887
711.647	12.86946188
711.83	12.86391436
712.014	12.86001762
712.198	12.85245345
712.382	12.84817011
712.565	12.83891686
712.749	12.84245855
712.933	12.83435824
713.116	12.82979862
713.3	12.82263779
713.483	12.80409165
713.667	12.79812208
713.851	12.79150322
714.034	12.78415074
714.218	12.78083675
714.401	12.77786361
714.585	12.77241656
714.768	12.76394291
714.952	12.75265902
715.135	12.74057259
715.319	12.72517132
715.502	12.71715021
715.686	12.70288983
715.869	12.69511698
716.052	12.69081888
716.236	12.68315031
716.419	12.68024159
716.602	12.66349456
716.786	12.65796287
716.969	12.64502306
717.152	12.63467179
717.336	12.62946963
717.519	12.6144189
717.702	12.60170139
717.885	12.59506263
718.069	12.57969972
718.252	12.56612948
718.435	12.55248001
718.618	12.53059633
718.801	12.51852763
718.985	12.50952508
719.168	12.4971529
719.351	12.482921
719.534	12.47316805
719.717	12.46481459
719.9	12.44752091
720.083	12.4325757
720.266	12.41487647
720.449	12.40791486
720.632	12.38969556
720.815	12.38357393
720.998	12.37114684
721.181	12.35946337
721.364	12.3520505
721.547	12.34543493
721.73	12.33373749
721.913	12.3235395
722.096	12.31409697
722.279	12.30426721
722.461	12.30465223
722.644	12.3033898
722.827	12.2951652
723.01	12.28419264
723.193	12.27370647
723.376	12.26129877
723.558	12.25417913
723.741	12.24414854
723.924	12.23157835
724.107	12.21462932
724.289	12.19970969
724.472	12.18309157
724.655	12.16633558
724.837	12.15517768
725.02	12.14530071
725.203	12.13172486
725.385	12.11706457
725.568	12.11065207
725.75	12.09613022
725.933	12.08912457
726.115	12.07640895
726.298	12.06075282
726.481	12.04685287
726.663	12.03647664
726.845	12.02694767
727.028	12.01946019
727.21	12.01375289
727.393	11.99138471
727.575	11.97772479
727.758	11.97036587
727.94	11.9716588
728.122	11.96184077
728.305	11.95850923
728.487	11.94889587
728.67	11.9344514
728.852	11.92573444
729.034	11.91652232
729.216	11.90828306
729.399	11.8970806
729.581	11.8944862
729.763	11.88466159
729.945	11.87240992
730.128	11.86418189
730.31	11.85430002
730.492	11.84703952
730.674	11.84017782
730.856	11.82906045
731.039	11.81731807
731.221	11.81519104
731.403	11.81056805
731.585	11.80377861
731.767	11.79170649
731.949	11.78399822
732.131	11.77225792
732.313	11.76384847
732.495	11.75757084
732.677	11.74886948
732.859	11.73857245
733.041	11.73352824
733.223	11.72350174
733.405	11.71340571
733.587	11.70229944
733.769	11.6986648
733.951	11.69066827
734.132	11.68022369
734.314	11.67455831
734.496	11.666352
734.678	11.65717731
734.86	11.64963571
735.042	11.64468209
735.223	11.63847125
735.405	11.6310823
735.587	11.61962578
735.769	11.60992045
735.95	11.60144418
736.132	11.59381758
736.314	11.58674309
736.495	11.57811034
736.677	11.57156069
736.859	11.56400932
737.04	11.55366939
737.222	11.54409539
737.403	11.53408656
737.585	11.53611336
737.767	11.5306367
737.948	11.52586519
738.13	11.51246545
738.311	11.50254828
738.493	11.50174746
738.674	11.49343587
738.856	11.48258368
739.037	11.47281088
739.219	11.46418489
739.4	11.45749717
739.581	11.45272839
739.763	11.44793172
739.944	11.43811367
740.125	11.43013855
740.307	11.42234555
740.488	11.41648844
740.669	11.40379213
740.851	11.40110006
741.032	11.39451331
741.213	11.39098959
741.395	11.37944561
741.576	11.37123029
741.757	11.36125751
741.938	11.3603063
742.119	11.35377346
742.301	11.34072533
742.482	11.33924816
742.663	11.33482732
742.844	11.32717234
743.025	11.32206484
743.206	11.31452526
743.387	11.3089232
743.568	11.3073821
743.749	11.30634895
743.93	11.30037798
744.111	11.29242175
744.292	11.28147768
744.473	11.27991285
744.654	11.27316795
744.835	11.27026735
745.016	11.26141036
745.197	11.25755574
745.378	11.25514815
745.559	11.25093348
745.74	11.2382994
745.921	11.23672088
746.102	11.2307325
746.282	11.22062394
746.463	11.21584128
746.644	11.21674728
746.825	11.21500092
747.006	11.21500614
747.186	11.2126499
747.367	11.20501867
747.548	11.19937289
747.728	11.19889217
747.909	11.20193003
748.09	11.20652776
748.27	11.20241216
748.451	11.19935597
748.632	11.19429628
748.812	11.19778255
748.993	11.19024175
749.173	11.18447039
749.354	11.19496008
749.535	11.19870503
749.715	11.19684618
749.896	11.19494171
750.076	11.18995937
750.257	11.18720209
750.437	11.18451672
750.618	11.17931608
750.798	11.17356821
750.978	11.17413182
751.159	11.17390171
751.339	11.17179911
751.52	11.16211355
751.7	11.16085887
751.88	11.16056088
752.061	11.15611649
752.241	11.1537311
752.421	11.14559957
752.601	11.13918447
752.782	11.14115208
752.962	11.14223847
753.142	11.13474102
753.322	11.12420302
753.503	11.12324601
753.683	11.12222804
753.863	11.1267552
754.043	11.12602994
754.223	11.12344913
754.403	11.12423272
754.583	11.12850225
754.764	11.11621853
754.944	11.11406384
755.124	11.11292838
755.304	11.11807644
755.484	11.11138973
755.664	11.11179727
755.844	11.11147393
756.024	11.10725718
756.204	11.12165676
756.384	11.11832916
756.564	11.12016284
756.743	11.11184651
756.923	11.10406298
757.103	11.11141568
757.283	11.10692917
757.463	11.10456076
757.643	11.09918315
757.823	11.09832625
758.002	11.09410686
758.182	11.09006904
758.362	11.09076496
758.542	11.09571758
758.721	11.09261644
758.901	11.09081021
759.081	11.09601293
759.261	11.10785478
759.44	11.09690353
759.62	11.10272629
759.8	11.10354376
759.979	11.09392833
760.159	11.09961062
760.338	11.09374143
760.518	11.08777402
760.698	11.0797574
760.877	11.07659188
761.057	11.07549542
761.236	11.07723915
761.416	11.08392985
761.595	11.0833484
761.775	11.07948434
761.954	11.07430889
762.133	11.06228399
762.313	11.05683123
762.492	11.050344
762.672	11.04609959
762.851	11.03898127
763.03	11.03263106
763.21	11.03260564
763.389	11.02947259
763.568	11.02471483
763.748	11.02137633
763.927	11.01998081
764.106	11.00864802
764.286	11.01284063
764.465	11.0098881
764.644	11.00947551
764.823	11.0182162
765.002	11.0122962
765.182	11.00390971
765.361	11.00010258
765.54	11.00508333
765.719	11.00866783
765.898	11.01161741
766.077	11.01211609
766.256	11.01908534
766.435	11.02363465
766.614	11.02718743
766.793	11.01885761
766.972	11.0234639
767.151	11.01702964
767.33	11.02457131
767.509	11.02079795
767.688	11.01714461
767.867	11.0237168
768.046	11.02285826
768.225	11.02880089
768.404	11.03292196
768.583	11.02244893
768.762	11.02264396
768.94	11.0228805
769.119	11.01711134
769.298	11.01063634
769.477	11.00820435
769.656	11.00806053
769.834	11.00495878
770.013	11.00306561
770.192	10.98930467
770.37	10.98607875
770.549	10.99021065
770.728	10.9868012
770.906	10.98426649
771.085	10.98005842
771.264	10.98012162
771.442	10.98117197
771.621	10.98495344
771.799	10.97984015
771.978	10.97827149
772.157	10.96938389
772.335	10.96418805
772.514	10.96613252
772.692	10.96490438
772.871	10.96935637
773.049	10.96776318
773.228	10.97303935
773.406	10.97029883
773.584	10.96927162
773.763	10.96424662
773.941	10.97224911
774.119	10.96282961
774.298	10.96075846
774.476	10.95075828
774.655	10.95984115
774.833	10.96008724
775.011	10.9581861
775.189	10.9601479
775.368	10.9502278
775.546	10.95601107
775.724	10.95656707
775.902	10.9585217
776.08	10.9646635
776.259	10.96567383
776.437	10.96501337
776.615	10.95929958
776.793	10.96073128
776.971	10.94857118
777.149	10.94808089
777.327	10.95318334
777.505	10.9520542
777.683	10.95665751
777.861	10.96729713
778.04	10.9664333
778.218	10.97378563
778.395	10.96535044
778.573	10.95773777
778.751	10.95784391
778.929	10.95383681
779.107	10.95587457
779.285	10.95611191
779.463	10.95483763
779.641	10.95156149
779.819	10.94460428
779.997	10.93867754
780.174	10.9440401
780.352	10.94330064
780.53	10.93677325
780.708	10.93764776
780.886	10.93501842
781.063	10.93080677
781.241	10.92562399
781.419	10.9214803
781.596	10.91690866
781.774	10.91883421
781.952	10.91329927
782.129	10.91201609
782.307	10.91009836
782.485	10.9130074
782.662	10.90761282
782.84	10.89912341
783.017	10.88238231
783.195	10.87954953
783.372	10.87170165
783.55	10.87260845
783.727	10.86809542
783.905	10.85236005
784.082	10.8500826
784.26	10.85302725
784.437	10.83875794
784.615	10.83462328
784.792	10.8338866
784.969	10.8455381
785.147	10.83227586
785.324	10.8243375
785.501	10.8196327
785.679	10.82449892
785.856	10.81688251
786.033	10.81539141
786.211	10.81608977
786.388	10.82292244
786.565	10.82374227
786.742	10.83544826
786.92	10.83407669
787.097	10.83672535
787.274	10.83350221
787.451	10.83958912
787.628	10.85215753
787.805	10.85513042
787.982	10.85501406
788.16	10.86400334
788.337	10.86666514
788.514	10.86329384
788.691	10.84065997
788.868	10.84877917
789.045	10.85041122
789.222	10.85066879
789.399	10.83496512
789.576	10.83887454
789.753	10.83992886
789.93	10.82012055
790.106	10.80374109
790.283	10.79800389
790.46	10.78914807
790.637	10.78512255
790.814	10.79458903
790.991	10.79325304
791.168	10.78430527
791.344	10.77691643
791.521	10.77413583
791.698	10.77018443
791.875	10.78000815
792.051	10.76906187
792.228	10.76902314
792.405	10.78247441
792.581	10.77969788
792.758	10.76764389
792.935	10.75517796
793.111	10.75791879
793.288	10.74688983
793.465	10.75833104
793.641	10.76968694
793.818	10.78173094
793.994	10.79775466
794.171	10.79851884
794.347	10.79140604
794.524	10.77675834
794.7	10.78166835
794.877	10.77916199
795.053	10.76515468
795.23	10.74951585
795.406	10.74747539
795.583	10.72775165
795.759	10.73433327
795.935	10.72437371
796.112	10.7063686
796.288	10.68946161
796.464	10.69023999
796.641	10.681058
796.817	10.68201998
796.993	10.69831283
797.169	10.69114383
797.346	10.69368996
797.522	10.6710021
797.698	10.66233498
797.874	10.6670811
798.051	10.65185099
798.227	10.64457657
798.403	10.64140532
798.579	10.63777987
798.755	10.64701255
798.931	10.6694877
799.107	10.66784603
799.283	10.67444997
799.459	10.66173755
799.635	10.6640552
799.811	10.66676349
799.987	10.67980909
800.163	10.68460358
800.339	10.69805075
800.515	10.69983754
800.691	10.68224522
800.867	10.67480073
801.043	10.67171371
801.219	10.68145931
801.395	10.67371679
801.571	10.66846204
801.746	10.67767345
801.922	10.67747303
802.098	10.66357889
802.274	10.66488011
802.45	10.65278172
802.625	10.64262266
802.801	10.61511256
802.977	10.60032022
803.152	10.61087092
803.328	10.61200601
803.504	10.60904805
803.679	10.60427014
803.855	10.59641429
804.031	10.59316895
804.206	10.57663211
804.382	10.58812669
804.557	10.58266636
804.733	10.56922279
804.909	10.55901483
805.084	10.54599216
805.26	10.5184428
805.435	10.51947352
805.61	10.52907408
805.786	10.52459437
805.961	10.52972714
806.137	10.53796466
806.312	10.52632466
806.488	10.53623768
806.663	10.53114548
806.838	10.51864642
807.014	10.51537674
807.189	10.5102526
807.364	10.49797635
807.54	10.48554924
807.715	10.47489995
807.89	10.48383181
808.065	10.47085066
808.241	10.45818504
808.416	10.45768049
808.591	10.47115427
808.766	10.48782339
808.941	10.50640108
809.116	10.50790244
809.291	10.49615244
809.467	10.48983235
809.642	10.47898119
809.817	10.47771091
809.992	10.46377571
810.167	10.46767492
810.342	10.48379712
810.517	10.47262773
810.692	10.46690875
810.867	10.46841797
811.042	10.46143639
811.217	10.46449821
811.392	10.45897073
811.567	10.46424108
811.741	10.44179768
811.916	10.44573768
812.091	10.45124153
812.266	10.40360357
812.441	10.38250692
812.616	10.38656309
812.79	10.37400937
812.965	10.37164466
813.14	10.38444751
813.315	10.37583526
813.489	10.35235945
813.664	10.35577196
813.839	10.34516601
814.013	10.31120483
814.188	10.3040675
814.363	10.27891012
814.537	10.27766459
814.712	10.28701194
814.887	10.29021858
815.061	10.30467983
815.236	10.2882887
815.41	10.29778759
815.585	10.27658277
815.759	10.28364496
815.934	10.30493214
816.108	10.29116216
816.283	10.28252155
816.457	10.27971032
816.631	10.29606628
816.806	10.28361468
816.98	10.26064123
817.155	10.26710323
817.329	10.25605654
817.503	10.26346309
817.678	10.28540105
817.852	10.31412721
818.026	10.33186593
818.201	10.32626027
818.375	10.30143217
818.549	10.29616782
818.723	10.24665276
818.897	10.21709947
819.072	10.23142773
819.246	10.23601156
819.42	10.22376396
819.594	10.22139461
819.768	10.24266466
819.942	10.23852077
820.116	10.22375713
820.29	10.17835134
820.465	10.16089304
820.639	10.1773473
820.813	10.17017056
820.987	10.19757806
821.161	10.18738171
821.335	10.18899789
821.509	10.13966141
821.682	10.16538782
821.856	10.15159821
822.03	10.17708186
822.204	10.16089953
822.378	10.17099935
822.552	10.18513204
822.726	10.16150808
822.9	10.17593581
823.073	10.14728612
823.247	10.14310877
823.421	10.13231752
823.595	10.13776138
823.768	10.1398821
823.942	10.14679461
824.116	10.13810347
824.289	10.13137782
824.463	10.13962674
824.637	10.09691802
824.81	10.07689273
824.984	10.08763612
825.158	10.11339199
825.331	10.06886765
825.505	10.08630253
825.678	10.09750367
825.852	10.13722835
826.025	10.13206033
826.199	10.12853222
826.372	10.12757822
826.546	10.11186275
826.719	10.11904173
826.893	10.13220838
827.066	10.13356378
827.24	10.10870558
827.413	10.09875068
827.586	10.09651782
827.76	10.11420996
827.933	10.13882206
828.106	10.12537528
828.28	10.14732464
828.453	10.15770796
828.626	10.10176895
828.799	10.11370743
828.973	10.11762692
829.146	10.13449955
829.319	10.07970549
829.492	10.01832425
829.665	10.04551681
829.839	10.08020219
830.012	10.07476318
830.185	10.07156627
830.358	10.06408213
830.531	10.06403884
830.704	10.04235373
830.877	10.06045338
831.05	10.04706928
831.223	10.03731992
831.396	10.01574556
831.569	9.97797056
831.742	9.94246164
831.915	9.93719629
832.088	9.92810057
832.261	10.00199882
832.434	9.98643997
832.607	9.97084799
832.779	9.91535875
832.952	9.9143968
833.125	9.93432063
833.298	9.91162601
833.471	9.88262108
833.643	9.86219964
833.816	9.87547667
833.989	9.87325677
834.162	9.86455627
834.334	9.88488968
834.507	9.85037205
834.68	9.87351072
834.852	9.88606096
835.025	9.91157354
835.198	9.92591814
835.37	9.99226307
835.543	9.97403279
835.715	9.98343178
835.888	9.95357265
836.061	9.9613978
836.233	9.99297958
836.406	9.9918572
836.578	10.0433295
836.751	10.04822866
836.923	10.07688346
837.095	10.04385444
837.268	10.06129608
837.44	10.02136067
837.613	10.00000513
837.785	9.98155925
837.957	9.97117249
838.13	10.01412821
838.302	10.05121709
838.474	10.06187084
838.647	10.05656999
838.819	10.05699116
838.991	9.93592937
839.163	9.96815447
839.336	9.9202054
839.508	9.90017635
839.68	9.85885067
839.852	9.82125722
840.024	9.85143752
840.196	9.84130781
840.368	9.82454
840.541	9.79394553
840.713	9.85845493
840.885	9.86480789
841.057	9.86615815
841.229	9.89248866
841.401	9.87113064
841.573	9.87833828
841.745	9.83360408
841.917	9.77234824
842.089	9.7285733
842.261	9.69580125
842.432	9.6404595
842.604	9.69653439
842.776	9.6717306
842.948	9.68273588
843.12	9.65610156
843.292	9.6960088
843.464	9.71323813
843.635	9.67561525
843.807	9.65254653
843.979	9.68455834
844.151	9.64768689
844.322	9.59790065
844.494	9.61665569
844.666	9.54769072
844.837	9.49178255
845.009	9.53805979
845.181	9.49792368
845.352	9.50124901
845.524	9.47080732
845.695	9.48583154
845.867	9.49533191
846.039	9.5200965
846.21	9.54930528
846.382	9.52760186
846.553	9.60676664
846.725	9.58458189
846.896	9.54809072
847.068	9.50593977
847.239	9.54691536
847.41	9.54572395
847.582	9.49856275
847.753	9.48185498
847.925	9.44877283
848.096	9.43162746
848.267	9.48247506
848.439	9.53351287
848.61	9.44587205
848.781	9.43390389
848.952	9.46649406
849.124	9.50301497
849.295	9.55854543
849.466	9.56517331
849.637	9.50946738
849.808	9.56274903
849.98	9.54125071
850.151	9.45930777
850.322	9.4957697
850.493	9.52026203
850.664	9.5449484
850.835	9.48492121
851.006	9.4988
851.177	9.49175148
851.348	9.47970476
851.519	9.46269327
851.69	9.44709952
851.861	9.53076352
852.032	9.51136536
852.203	9.56448908
852.374	9.53448702
852.545	9.53384468
852.716	9.55256898
852.887	9.50693022
853.057	9.44061854
853.228	9.54960614
853.399	9.4731105
853.57	9.52124719
853.741	9.50869333
853.911	9.578574
854.082	9.52887146
854.253	9.55476996
854.424	9.57699491
854.594	9.58855356
854.765	9.6570018
854.936	9.72301868
855.106	9.73160857
855.277	9.72706471
855.447	9.66067947
855.618	9.68406236
855.789	9.63990178
855.959	9.7152151
856.13	9.683493
856.3	9.66778421
856.471	9.6017299
856.641	9.65782888
856.812	9.54655835
856.982	9.60636328
857.153	9.58796226
857.323	9.64480978
857.493	9.55044811
857.664	9.5460244
857.834	9.42414724
858.004	9.39678236
858.175	9.41789016
858.345	9.34719707
858.515	9.37393118
858.686	9.3432924
858.856	9.40121711
859.026	9.3646452
859.196	9.29998539
859.367	9.35481992
859.537	9.3326535
859.707	9.25772342
859.877	9.27698655
860.047	9.33085218
860.217	9.34170531
860.387	9.43867738
860.558	9.37044902
860.728	9.31640101
860.898	9.26491565
861.068	9.2928579
861.238	9.28598705
861.408	9.28912084
861.578	9.3651081
861.748	9.21909135
861.918	9.24148921
862.088	9.1451117
862.257	9.16937154
862.427	9.10166316
862.597	9.25160828
862.767	9.36735966
862.937	9.30706655
863.107	9.28450696
863.277	9.26391171
863.446	9.23416407
863.616	9.28344378
863.786	9.30318889
863.956	9.30751987
864.125	9.3224204
864.295	9.29275098
864.465	9.27981578
864.634	9.25982986
864.804	9.35098292
864.974	9.42054963
865.143	9.41375425
865.313	9.46931557
865.482	9.46787151
865.652	9.51881696
865.822	9.46673345
865.991	9.43663163
866.161	9.36168292
866.33	9.34795525
866.5	9.41367032
866.669	9.48051517
866.838	9.51679755
867.008	9.38758496
867.177	9.3198027
867.347	9.33234341
867.516	9.26217951
867.685	9.20611809
867.855	9.21228284
868.024	9.20503116
868.193	9.15542622
868.363	9.10127602
868.532	9.14021977
868.701	9.15903205
868.87	9.08683166
869.04	9.02468291
869.209	8.9325411
869.378	9.06220647
869.547	9.0875699
869.716	8.98148931
869.885	8.96328773
870.055	8.98846973
870.224	8.95204654
870.393	8.98368136
870.562	9.02823724
870.731	8.90332279
870.9	8.81432272
871.069	8.82527369
871.238	8.75073815
871.407	8.74723214
871.576	8.80857733
871.745	8.82964674
871.914	8.81998304
872.083	8.76441006
872.251	8.73938791
872.42	8.67719956
872.589	8.63899701
872.758	8.68591244
872.927	8.62756273
873.096	8.61600125
873.264	8.67562577
873.433	8.53644121
873.602	8.37554577
873.771	8.28831623
873.939	8.25167441
874.108	8.19211288
874.277	8.23976094
874.445	8.27028637
874.614	8.14909201
874.783	8.13777235
874.951	8.21570011
875.12	8.2093692
875.288	8.16220051
875.457	8.0696522
875.625	7.9366223
875.794	7.71844734
875.962	7.75549526
876.131	7.77761684
876.299	7.82018249
876.468	7.76676296
876.636	7.74231753
876.805	7.68700013
876.973	7.57969775
877.141	7.80316579
877.31	7.8676314
877.478	8.04666084
877.647	8.2530718
877.815	8.2039844
877.983	8.08200412
878.151	8.14315398
878.32	8.27272127
878.488	8.13584687
878.656	8.04994414
878.824	8.03599563
878.992	8.23990155
879.161	8.32237024
879.329	8.56456917
879.497	8.55145314
879.665	8.61977392
879.833	8.60380084
880.001	8.48803677
880.169	8.23818135
880.337	8.26484717
880.505	8.4485265
880.673	8.26107842
880.841	8.08697827
881.009	8.02166444
881.177	7.74960918
881.345	7.99712298
881.513	8.06678612
881.681	7.89334517
881.849	8.01200063
882.017	8.10410673
882.185	8.19319823
882.352	8.10123124
882.52	7.85112416
882.688	7.96661422
882.856	7.73802391
883.024	7.89377437
883.191	7.88891226
883.359	7.46613487
883.527	7.48258711
883.694	7.61778137
883.862	7.33306428
884.03	7.16847614
884.197	7.13294314
884.365	7.3248452
884.533	6.94145285
884.7	6.88982342
884.868	6.71823757
885.035	6.57162707
885.203	6.58267692
885.37	6.32217836
885.538	6.23996611
885.705	6.05805615
885.873	6.12719718
886.04	6.0484808
886.208	5.7599428
886.375	5.72205446
886.542	5.31115725
886.71	5.00510896
886.877	5.63491343
