Data from claw2_Reflection_08-59-48-345.txt Node
Date: Wed Dec 06 08:59:48 AEST 2023
User: uqkchene_local
Spectrometer: USB4E02642
Trigger mode: 4
Integration Time (sec): 1.700000E-2
Scans to average: 10
Electric dark correction enabled: true
Nonlinearity correction enabled: false
Boxcar width: 10
XAxis mode: Wavelengths
Number of Pixels in Spectrum: 3648
>>>>>Begin Spectral Data<<<<<
179.217	-24.90527041
179.432	-66.80161943
179.647	-49.22227797
179.862	-55.0049554
180.077	-218.4
180.293	46.38157895
180.508	-547.34693878
180.723	-1.86335404
180.938	16.50135257
181.153	65.44175137
181.368	54.5183714
181.583	46.68850924
181.798	39.812947
182.013	41.26483401
182.228	42.71650925
182.443	37.62719981
182.658	32.2765669
182.873	35.44893112
183.088	34.55369888
183.303	35.37356546
183.518	41.2951828
183.733	42.63956029
183.948	40.8142153
184.162	41.99917729
184.377	44.19824747
184.592	45.5963958
184.807	51.16945356
185.022	48.16735651
185.237	49.35261015
185.452	50.76608784
185.667	50.24915112
185.882	53.85450106
186.096	54.28896374
186.311	56.39111352
186.526	57.73762765
186.741	57.21522517
186.956	57.25840385
187.17	60.85943813
187.385	59.61107669
187.6	59.57740446
187.815	60.33458486
188.03	56.96446652
188.244	56.10413358
188.459	57.58768262
188.674	63.00392956
188.889	61.5096542
189.103	62.66782157
189.318	56.75806843
189.533	58.75425023
189.747	59.4058919
189.962	58.18335069
190.177	59.55585817
190.391	54.29181278
190.606	53.87545633
190.821	53.49891682
191.035	53.32832457
191.25	54.33414284
191.465	56.58984787
191.679	57.51643982
191.894	58.34372662
192.109	61.83930779
192.323	60.60883387
192.538	61.85659593
192.752	63.01195144
192.967	61.76870111
193.181	57.59625139
193.396	60.12655194
193.611	62.15862938
193.825	62.62548958
194.04	61.45913083
194.254	61.76377382
194.469	61.87693829
194.683	59.79938605
194.898	62.95703941
195.112	63.00804173
195.327	61.48724136
195.541	60.00348781
195.756	61.53546207
195.97	60.89329611
196.184	59.25209011
196.399	56.70749309
196.613	55.84241969
196.828	56.30883532
197.042	58.14388306
197.257	59.78760167
197.471	59.00423285
197.685	60.56188493
197.9	57.65477588
198.114	54.75988186
198.328	57.13168402
198.543	58.40403957
198.757	57.01535468
198.971	58.86220083
199.186	59.25878485
199.4	58.74187461
199.614	58.53355604
199.829	61.27874463
200.043	61.15692206
200.257	59.34810627
200.471	60.7528933
200.686	61.43326267
200.9	63.658796
201.114	63.34399935
201.328	63.03317536
201.543	61.39304285
201.757	60.85890064
201.971	62.20416254
202.185	61.00767565
202.399	62.94187791
202.614	62.31181324
202.828	60.28211123
203.042	59.98786822
203.256	60.49134562
203.47	59.65595225
203.684	60.07260846
203.899	59.74474085
204.113	60.47219269
204.327	58.76751112
204.541	61.42552953
204.755	60.10197578
204.969	59.40814555
205.183	60.39521816
205.397	60.57090576
205.611	60.59551865
205.825	61.97774269
206.039	60.85243687
206.253	60.27971009
206.467	59.25830543
206.681	58.40359339
206.895	58.06679823
207.109	60.34809774
207.323	58.84251699
207.537	57.40238511
207.751	58.03847156
207.965	58.73508441
208.179	58.41524498
208.393	58.29736121
208.607	59.97311125
208.821	60.44801195
209.035	58.38344601
209.249	60.40912315
209.463	58.49894526
209.677	57.05666802
209.891	55.63293272
210.104	54.69463201
210.318	55.0123176
210.532	55.44777544
210.746	52.10107331
210.96	54.06365944
211.174	54.20053157
211.387	51.86217181
211.601	49.96211064
211.815	53.95979939
212.029	54.16650659
212.243	55.46003076
212.456	54.38178133
212.67	56.35850957
212.884	55.81295581
213.098	54.11805744
213.311	53.68120637
213.525	51.60384774
213.739	52.60028029
213.953	53.93980386
214.166	53.06976917
214.38	53.99483088
214.594	54.4322232
214.807	54.07452518
215.021	52.37579741
215.235	56.79277244
215.448	55.2171723
215.662	56.08400492
215.876	55.38965912
216.089	57.54115669
216.303	57.62329174
216.516	59.71685448
216.73	57.5916023
216.944	57.0032831
217.157	53.15128471
217.371	51.67863381
217.584	49.02922219
217.798	49.39378382
218.011	53.16574699
218.225	52.06506646
218.439	53.7977999
218.652	54.1461027
218.866	54.38484035
219.079	54.00802775
219.293	52.63868008
219.506	52.85133544
219.719	51.39140839
219.933	50.51290723
220.146	51.50859658
220.36	53.15322011
220.573	52.70204751
220.787	54.02188022
221	53.76090456
221.214	52.5730972
221.427	53.56186597
221.64	55.78542588
221.854	56.81032138
222.067	57.73333843
222.28	58.40118431
222.494	57.72426854
222.707	59.12678158
222.92	56.64054962
223.134	57.23049271
223.347	55.98829268
223.56	55.87900663
223.774	55.03648508
223.987	57.02498729
224.2	56.79135032
224.414	58.9091344
224.627	58.39518556
224.84	58.20954023
225.053	57.48190019
225.267	53.65555336
225.48	51.06326118
225.693	52.84208936
225.906	51.89623036
226.119	52.96602035
226.333	54.33106069
226.546	55.16410161
226.759	54.4755926
226.972	54.44139696
227.185	52.50247498
227.398	54.16294284
227.612	53.46722515
227.825	55.89425886
228.038	57.9644622
228.251	60.23232217
228.464	59.62569584
228.677	60.11982027
228.89	60.3737694
229.103	58.59007661
229.316	60.32877076
229.529	58.62367886
229.743	59.29448156
229.956	60.31719808
230.169	62.16996294
230.382	63.85195832
230.595	61.36459448
230.808	60.88808398
231.021	61.66136371
231.234	63.63699318
231.447	62.20361215
231.66	61.51058808
231.872	63.26336202
232.085	63.56750486
232.298	62.35721881
232.511	61.37586077
232.724	62.12932947
232.937	63.40626192
233.15	63.6279103
233.363	62.68905182
233.576	62.11533759
233.789	57.98710223
234.002	58.51015326
234.214	58.34290688
234.427	58.97706858
234.64	57.70909478
234.853	56.30173804
235.066	57.01469064
235.279	58.05906882
235.491	58.88350666
235.704	55.93424621
235.917	54.65993288
236.13	56.36520642
236.342	52.6490845
236.555	52.70265696
236.768	52.66204095
236.981	51.58348198
237.193	51.13708892
237.406	48.7274566
237.619	47.49909208
237.832	46.68151297
238.044	49.47705516
238.257	53.80054466
238.47	53.14564488
238.682	55.90140033
238.895	55.81530073
239.108	56.00394706
239.32	55.43379609
239.533	55.00558621
239.746	53.77322845
239.958	52.38363694
240.171	53.74220736
240.383	57.06966856
240.596	57.10146951
240.808	58.6190362
241.021	59.81594084
241.234	60.10545395
241.446	59.76676385
241.659	57.04936739
241.871	58.46057033
242.084	57.98429749
242.296	58.29635069
242.509	58.51006155
242.721	56.3147318
242.934	58.33782029
243.146	56.16394798
243.359	53.8334655
243.571	52.57209788
243.784	53.00820859
243.996	53.48792083
244.208	54.19407095
244.421	55.6102847
244.633	55.18970146
244.846	53.560855
245.058	54.22907913
245.27	55.28190193
245.483	54.59272097
245.695	51.68159596
245.907	51.71050534
246.12	52.72564504
246.332	52.63680954
246.544	53.454383
246.757	53.03084358
246.969	53.09094479
247.181	53.80568577
247.394	54.32245773
247.606	53.6694232
247.818	55.5822824
248.03	56.19534787
248.243	57.11979113
248.455	56.7213775
248.667	54.6145494
248.879	52.8835519
249.092	53.70400924
249.304	53.23210412
249.516	51.76261048
249.728	50.85317258
249.94	49.2707029
250.153	53.87190733
250.365	54.49286277
250.577	54.050265
250.789	53.10196879
251.001	54.05433252
251.213	55.20928811
251.425	52.44721524
251.637	52.70357422
251.85	51.21064975
252.062	50.83102041
252.274	49.94296144
252.486	50.86851822
252.698	50.18898572
252.91	51.16301331
253.122	51.25043805
253.334	52.28432998
253.546	51.41640793
253.758	51.32666517
253.97	53.04539702
254.182	51.66607757
254.394	51.15790834
254.606	48.94930007
254.818	48.79015369
255.03	49.54275787
255.242	50.97828564
255.454	49.5987583
255.666	48.80289807
255.877	48.96380666
256.089	48.96266899
256.301	48.64324479
256.513	51.42740492
256.725	51.7909845
256.937	51.88435396
257.149	53.06412402
257.361	52.3530329
257.572	52.24175894
257.784	50.21392211
257.996	49.41565601
258.208	49.23509596
258.42	47.23888633
258.631	49.03114728
258.843	49.15825967
259.055	49.88838233
259.267	49.67854148
259.479	49.88888541
259.69	48.33680157
259.902	49.93991311
260.114	49.35101492
260.325	49.2222811
260.537	47.53190541
260.749	48.65566416
260.961	47.7682092
261.172	49.32013244
261.384	49.06449483
261.596	48.98359783
261.807	48.73675357
262.019	50.20222616
262.23	52.18593222
262.442	54.72685862
262.654	54.22882191
262.865	53.97500754
263.077	50.55870608
263.288	52.25150925
263.5	51.39827052
263.712	53.02189685
263.923	51.94834988
264.135	52.22262378
264.346	49.55116102
264.558	50.21553885
264.769	53.02824146
264.981	54.34959747
265.192	52.24224851
265.404	50.70408535
265.615	49.7975975
265.827	48.50331302
266.038	47.60401722
266.25	47.2665397
266.461	46.77485556
266.673	46.6827952
266.884	45.66120219
267.095	48.82954797
267.307	48.38071536
267.518	51.52767622
267.73	51.0344164
267.941	49.71627833
268.152	49.63893839
268.364	49.58455449
268.575	51.87774247
268.786	52.98722578
268.998	52.97880609
269.209	50.15795649
269.42	51.54780385
269.632	53.21626786
269.843	54.63730489
270.054	52.9226882
270.265	54.33961105
270.477	56.01609536
270.688	56.13405697
270.899	56.89975342
271.11	57.14329691
271.322	57.8588748
271.533	56.283987
271.744	56.09375469
271.955	54.24751921
272.166	54.34207081
272.378	56.01009351
272.589	54.29308844
272.8	54.09428528
273.011	53.15940997
273.222	54.2317149
273.433	55.0356414
273.644	56.621881
273.856	54.26430874
274.067	54.21477559
274.278	53.8584795
274.489	55.78922974
274.7	54.72879587
274.911	53.19632756
275.122	53.80286353
275.333	53.70335188
275.544	52.96115589
275.755	50.61061971
275.966	51.87401068
276.177	52.08032872
276.388	51.91855912
276.599	51.65939224
276.81	52.22868484
277.021	54.30469029
277.232	55.49188157
277.443	53.65593457
277.654	53.34290124
277.865	52.38095238
278.076	50.26272624
278.287	50.89547564
278.497	51.6606529
278.708	50.28947443
278.919	49.55489614
279.13	49.59566389
279.341	48.81647259
279.552	49.19858734
279.763	48.91274596
279.973	48.27220048
280.184	49.50653427
280.395	48.09245499
280.606	49.4705522
280.817	48.76533859
281.027	48.8355743
281.238	47.31687646
281.449	45.50608927
281.66	43.93872957
281.87	45.0016157
282.081	43.67196114
282.292	44.58992597
282.503	46.83501589
282.713	46.71083249
282.924	45.8928917
283.135	46.72966109
283.345	46.31971069
283.556	47.43675725
283.767	47.93881392
283.977	47.15085856
284.188	46.8459152
284.399	48.30264749
284.609	47.32739722
284.82	48.04813944
285.03	47.25123316
285.241	48.6995761
285.451	50.64920683
285.662	52.50876757
285.873	53.71923553
286.083	54.97823647
286.294	54.29593944
286.504	54.72179268
286.715	54.70718443
286.925	54.58479628
287.136	56.05848627
287.346	55.65069876
287.557	54.91062848
287.767	54.85256463
287.978	52.96435221
288.188	52.88221924
288.399	52.53920338
288.609	52.45414112
288.819	51.6459155
289.03	52.19789998
289.24	49.99118765
289.451	49.2123752
289.661	49.36934764
289.871	47.4435424
290.082	46.53221023
290.292	45.99995276
290.502	45.97661544
290.713	46.64305409
290.923	46.25230141
291.133	46.18390656
291.344	44.47758632
291.554	43.67756082
291.764	43.91973849
291.974	44.60800824
292.185	43.22438487
292.395	42.05664671
292.605	42.32176679
292.815	42.11189194
293.026	40.83272462
293.236	40.62602284
293.446	39.87811561
293.656	40.25010698
293.866	39.58836098
294.077	38.51809203
294.287	37.18617841
294.497	36.41534159
294.707	35.48954839
294.917	34.87100341
295.127	33.1760143
295.337	32.69806878
295.548	31.0804989
295.758	31.17426528
295.968	30.54208986
296.178	29.4878524
296.388	28.78024236
296.598	28.46964677
296.808	28.67709325
297.018	27.60572002
297.228	27.06957915
297.438	27.01621288
297.648	26.66559238
297.858	26.34812325
298.068	25.83526513
298.278	25.20376015
298.488	24.75685789
298.698	24.90900538
298.908	24.25344505
299.118	24.04559227
299.328	23.50766934
299.538	23.69121628
299.748	23.44111468
299.957	23.37479173
300.167	23.04748819
300.377	22.74549068
300.587	22.59385745
300.797	22.32376671
301.007	22.34328291
301.217	22.21605609
301.426	22.28853584
301.636	22.1733395
301.846	21.9970472
302.056	21.84938217
302.266	21.76784118
302.475	21.62941893
302.685	21.58859282
302.895	21.5519248
303.105	21.40622312
303.314	21.48370715
303.524	21.34924506
303.734	21.37172676
303.944	21.2216041
304.153	21.15702272
304.363	21.02890694
304.573	20.90076883
304.782	20.83262178
304.992	20.81009996
305.202	20.82171806
305.411	20.77947524
305.621	20.66297338
305.831	20.5782083
306.04	20.51079213
306.25	20.53174613
306.459	20.46709791
306.669	20.38885605
306.878	20.34900489
307.088	20.27623648
307.298	20.24194898
307.507	20.16918809
307.717	20.14432825
307.926	20.08444443
308.136	20.0580556
308.345	20.07706116
308.555	20.04536974
308.764	20.05103546
308.974	20.0837009
309.183	20.07044235
309.392	20.01990705
309.602	19.98328285
309.811	19.93345691
310.021	19.89670366
310.23	19.86904212
310.44	19.82754162
310.649	19.79610195
310.858	19.75274508
311.068	19.74617453
311.277	19.71766956
311.486	19.74646251
311.696	19.68908005
311.905	19.71999749
312.114	19.67730064
312.324	19.73180374
312.533	19.72328972
312.742	19.70371286
312.952	19.66552336
313.161	19.66478073
313.37	19.67097545
313.579	19.67309878
313.789	19.65059925
313.998	19.65716604
314.207	19.6525027
314.416	19.63906568
314.625	19.6316806
314.835	19.64068117
315.044	19.64333211
315.253	19.66785632
315.462	19.662129
315.671	19.65702264
315.88	19.64048501
316.09	19.6461658
316.299	19.61389318
316.508	19.61285018
316.717	19.59676542
316.926	19.57464005
317.135	19.5574953
317.344	19.56693166
317.553	19.55712891
317.762	19.51161185
317.971	19.50643951
318.18	19.54222334
318.389	19.52350323
318.598	19.54254774
318.807	19.54486521
319.016	19.55773323
319.225	19.56073147
319.434	19.55322856
319.643	19.52862663
319.852	19.50793865
320.061	19.50316918
320.27	19.51039657
320.479	19.5258184
320.688	19.51327149
320.897	19.49414712
321.105	19.46342771
321.314	19.46565495
321.523	19.46015433
321.732	19.4577954
321.941	19.44267828
322.15	19.46990397
322.359	19.46480857
322.567	19.45280243
322.776	19.4473317
322.985	19.4547639
323.194	19.45807952
323.403	19.43990355
323.611	19.44555051
323.82	19.42813368
324.029	19.42083272
324.237	19.4372231
324.446	19.43488473
324.655	19.42797507
324.864	19.41938139
325.072	19.42496063
325.281	19.43338395
325.49	19.44409497
325.698	19.43685791
325.907	19.43808747
326.116	19.42953672
326.324	19.42661166
326.533	19.43149784
326.741	19.41724471
326.95	19.41829648
327.159	19.41426113
327.367	19.40307257
327.576	19.40300914
327.784	19.41242426
327.993	19.41120138
328.201	19.42493589
328.41	19.42208184
328.618	19.41646131
328.827	19.41955661
329.035	19.41193408
329.244	19.40327972
329.452	19.41028097
329.661	19.40948915
329.869	19.39788306
330.078	19.40366676
330.286	19.40888558
330.495	19.4213435
330.703	19.42493334
330.911	19.40152841
331.12	19.41815378
331.328	19.41755245
331.537	19.42982061
331.745	19.44451932
331.953	19.45300516
332.162	19.44853999
332.37	19.44920411
332.578	19.4337093
332.787	19.46604903
332.995	19.4803194
333.203	19.4864792
333.411	19.50307675
333.62	19.50269241
333.828	19.49944737
334.036	19.50161769
334.244	19.52973136
334.453	19.51640788
334.661	19.51528119
334.869	19.51984007
335.077	19.52692289
335.285	19.54022256
335.494	19.55252351
335.702	19.56388401
335.91	19.56871879
336.118	19.5452997
336.326	19.53574356
336.534	19.55671475
336.742	19.5505877
336.951	19.55710833
337.159	19.54334392
337.367	19.52705512
337.575	19.54376415
337.783	19.54719032
337.991	19.56133558
338.199	19.56002887
338.407	19.57269629
338.615	19.55704998
338.823	19.58618834
339.031	19.58793099
339.239	19.60004609
339.447	19.59771501
339.655	19.60992954
339.863	19.60626081
340.071	19.59901738
340.279	19.58748912
340.487	19.60218267
340.695	19.62013932
340.903	19.61055166
341.11	19.62057204
341.318	19.62707569
341.526	19.63531022
341.734	19.66045752
341.942	19.64038064
342.15	19.64875505
342.358	19.65508949
342.565	19.65811322
342.773	19.65774612
342.981	19.64795256
343.189	19.65171949
343.397	19.66221319
343.604	19.64445538
343.812	19.6675262
344.02	19.66709379
344.228	19.66247959
344.435	19.66340266
344.643	19.676323
344.851	19.67831231
345.058	19.68978877
345.266	19.67982365
345.474	19.69561111
345.681	19.69953274
345.889	19.70501878
346.097	19.71666086
346.304	19.73299373
346.512	19.74495213
346.72	19.75040924
346.927	19.76633873
347.135	19.7744674
347.342	19.78053245
347.55	19.77355446
347.758	19.76517797
347.965	19.79278468
348.173	19.79509698
348.38	19.79322715
348.588	19.80191893
348.795	19.8121319
349.003	19.80913112
349.21	19.81747131
349.418	19.81401171
349.625	19.82925808
349.833	19.83206369
350.04	19.83290854
350.247	19.81831669
350.455	19.80563047
350.662	19.82323638
350.87	19.81192328
351.077	19.80861284
351.284	19.79082724
351.492	19.77686792
351.699	19.79175107
351.906	19.79853537
352.114	19.8044305
352.321	19.80367917
352.528	19.78697967
352.736	19.78670788
352.943	19.79436238
353.15	19.79532619
353.358	19.80184092
353.565	19.79560865
353.772	19.79296552
353.979	19.80125441
354.187	19.79624016
354.394	19.80682353
354.601	19.83111973
354.808	19.821545
355.015	19.79693696
355.223	19.78557437
355.43	19.78260076
355.637	19.78330095
355.844	19.80006685
356.051	19.79082323
356.258	19.78330995
356.465	19.77801863
356.673	19.77303173
356.88	19.77310659
357.087	19.78451753
357.294	19.78095634
357.501	19.76690916
357.708	19.76952615
357.915	19.76399159
358.122	19.74366315
358.329	19.73881016
358.536	19.73252654
358.743	19.73131901
358.95	19.72922265
359.157	19.73451225
359.364	19.73881843
359.571	19.74679878
359.778	19.758219
359.985	19.77382827
360.192	19.78658624
360.399	19.79875888
360.606	19.80959204
360.812	19.81457783
361.019	19.81406342
361.226	19.8212249
361.433	19.82164844
361.64	19.81957232
361.847	19.82954733
362.054	19.83422255
362.26	19.82375519
362.467	19.84289982
362.674	19.83864262
362.881	19.8365687
363.088	19.83192538
363.294	19.83361834
363.501	19.84828719
363.708	19.843857
363.915	19.84513024
364.121	19.84290892
364.328	19.84581345
364.535	19.84049122
364.741	19.84103159
364.948	19.82939482
365.155	19.82281634
365.361	19.82751796
365.568	19.83460577
365.775	19.83848729
365.981	19.84639737
366.188	19.84231392
366.395	19.83881744
366.601	19.85855307
366.808	19.86370015
367.014	19.86177694
367.221	19.8763349
367.427	19.87567047
367.634	19.85641298
367.84	19.84954318
368.047	19.8558873
368.254	19.86238154
368.46	19.8667172
368.667	19.86337761
368.873	19.86024085
369.079	19.85713875
369.286	19.86634931
369.492	19.87381923
369.699	19.86982147
369.905	19.86140159
370.112	19.85855947
370.318	19.84757122
370.524	19.85800805
370.731	19.8581056
370.937	19.86120174
371.144	19.85628726
371.35	19.86994647
371.556	19.87321036
371.763	19.88848488
371.969	19.90140471
372.175	19.88855916
372.381	19.88462864
372.588	19.88169669
372.794	19.87388757
373	19.8671177
373.206	19.86095296
373.413	19.86444377
373.619	19.85680712
373.825	19.86392977
374.031	19.85446407
374.238	19.8673052
374.444	19.85288285
374.65	19.86066323
374.856	19.86828458
375.062	19.86671969
375.268	19.86393757
375.475	19.86412258
375.681	19.86824529
375.887	19.86685895
376.093	19.85758885
376.299	19.85530249
376.505	19.86223293
376.711	19.87539467
376.917	19.87796423
377.123	19.87569312
377.329	19.88811448
377.535	19.88921985
377.741	19.88805968
377.947	19.89496718
378.153	19.88150693
378.359	19.89866575
378.565	19.89462307
378.771	19.91707711
378.977	19.9216986
379.183	19.90686774
379.389	19.90918512
379.595	19.89767146
379.801	19.89396982
380.007	19.88191807
380.213	19.87648256
380.418	19.87280313
380.624	19.88030614
380.83	19.88970394
381.036	19.87469295
381.242	19.87774164
381.448	19.88781709
381.653	19.87904625
381.859	19.88412283
382.065	19.88132952
382.271	19.89918811
382.476	19.91394599
382.682	19.90960604
382.888	19.8977114
383.094	19.88074085
383.299	19.87117438
383.505	19.88209974
383.711	19.88188141
383.916	19.88953249
384.122	19.89185379
384.328	19.89343393
384.533	19.88488245
384.739	19.89139232
384.945	19.89603931
385.15	19.89756909
385.356	19.91124408
385.562	19.9131972
385.767	19.91633395
385.973	19.92771563
386.178	19.9282017
386.384	19.9104901
386.589	19.90271797
386.795	19.89562868
387	19.89999968
387.206	19.90377463
387.411	19.89822502
387.617	19.89508268
387.822	19.87952347
388.028	19.89164214
388.233	19.90036854
388.439	19.89769646
388.644	19.89424441
388.85	19.89148934
389.055	19.87232525
389.26	19.85808634
389.466	19.84475412
389.671	19.83569447
389.877	19.82585097
390.082	19.80906459
390.287	19.79740897
390.493	19.79600854
390.698	19.82089466
390.903	19.80865034
391.109	19.81433531
391.314	19.79982398
391.519	19.81083232
391.724	19.80988466
391.93	19.80556069
392.135	19.81820496
392.34	19.81942868
392.545	19.81919935
392.751	19.81894278
392.956	19.82485026
393.161	19.82919619
393.366	19.84225696
393.571	19.84943084
393.776	19.85688767
393.982	19.85966112
394.187	19.85211438
394.392	19.84901818
394.597	19.84257297
394.802	19.83047021
395.007	19.82656901
395.212	19.83077877
395.417	19.82635083
395.622	19.83497205
395.827	19.81967971
396.032	19.83314391
396.237	19.8325127
396.442	19.82116529
396.647	19.81156011
396.852	19.80070083
397.057	19.80604591
397.262	19.79727153
397.467	19.78964883
397.672	19.78889113
397.877	19.77599976
398.082	19.77536223
398.287	19.76689686
398.492	19.7541184
398.697	19.75964836
398.902	19.75662372
399.107	19.76051304
399.311	19.74485025
399.516	19.7345906
399.721	19.73607021
399.926	19.7268615
400.131	19.73513215
400.336	19.73431185
400.54	19.74277774
400.745	19.74441632
400.95	19.73762046
401.155	19.74343329
401.359	19.72942154
401.564	19.71760972
401.769	19.72818365
401.974	19.72758578
402.178	19.73269538
402.383	19.73005632
402.588	19.72835883
402.792	19.73763654
402.997	19.73713684
403.202	19.73686699
403.406	19.7312379
403.611	19.72806988
403.815	19.72974018
404.02	19.71986631
404.225	19.72540791
404.429	19.72654504
404.634	19.71413848
404.838	19.70080112
405.043	19.70200793
405.247	19.69097212
405.452	19.67739885
405.656	19.68964672
405.861	19.70707595
406.065	19.69707009
406.27	19.69533659
406.474	19.69518638
406.679	19.69468558
406.883	19.69303284
407.088	19.69843985
407.292	19.68905352
407.497	19.69605109
407.701	19.70027206
407.905	19.70755852
408.11	19.6994439
408.314	19.70266599
408.518	19.70179825
408.723	19.68938805
408.927	19.69160705
409.131	19.69131468
409.336	19.68776207
409.54	19.70069098
409.744	19.70556265
409.949	19.6957654
410.153	19.685903
410.357	19.6749225
410.561	19.67133419
410.766	19.66975347
410.97	19.66043715
411.174	19.65874088
411.378	19.64696415
411.582	19.65763823
411.787	19.64811194
411.991	19.64677077
412.195	19.63685008
412.399	19.63648019
412.603	19.6341198
412.807	19.62808103
413.011	19.62863238
413.215	19.62979788
413.419	19.63964766
413.624	19.63726328
413.828	19.63022975
414.032	19.62749841
414.236	19.62126986
414.44	19.62356617
414.644	19.62534942
414.848	19.62303172
415.052	19.61770172
415.256	19.62068616
415.46	19.6267427
415.664	19.63130438
415.868	19.62286087
416.072	19.62670368
416.275	19.62178269
416.479	19.64124148
416.683	19.63980746
416.887	19.63276872
417.091	19.62474314
417.295	19.63446225
417.499	19.63100994
417.703	19.62622168
417.906	19.61856361
418.11	19.61867374
418.314	19.63074791
418.518	19.63403109
418.722	19.6307942
418.925	19.64130958
419.129	19.63505161
419.333	19.64412386
419.537	19.63538532
419.74	19.62664831
419.944	19.62400968
420.148	19.62451017
420.352	19.62073587
420.555	19.61959454
420.759	19.60859591
420.963	19.61433871
421.166	19.61413728
421.37	19.61586738
421.573	19.60322268
421.777	19.5962272
421.981	19.59559743
422.184	19.59383285
422.388	19.58838487
422.591	19.57112795
422.795	19.57565215
422.999	19.57562811
423.202	19.56947537
423.406	19.58066396
423.609	19.57810351
423.813	19.58211104
424.016	19.57918908
424.22	19.59090221
424.423	19.58140737
424.627	19.58514057
424.83	19.58278715
425.033	19.58655465
425.237	19.58657039
425.44	19.58926548
425.644	19.58845813
425.847	19.58767591
426.05	19.5930618
426.254	19.58606948
426.457	19.59210383
426.66	19.59566251
426.864	19.61142564
427.067	19.60801767
427.27	19.60199251
427.474	19.59644759
427.677	19.59072451
427.88	19.57918396
428.084	19.58710643
428.287	19.58757661
428.49	19.57391831
428.693	19.5767508
428.896	19.56327214
429.1	19.56950271
429.303	19.56225316
429.506	19.55271999
429.709	19.55606647
429.912	19.55640085
430.116	19.56199706
430.319	19.55320511
430.522	19.55505388
430.725	19.55899454
430.928	19.55520996
431.131	19.54372955
431.334	19.53784674
431.537	19.53826238
431.74	19.52998293
431.943	19.51754671
432.146	19.52246154
432.349	19.52684814
432.552	19.52469564
432.755	19.52168205
432.958	19.51924913
433.161	19.52324879
433.364	19.52179068
433.567	19.52695006
433.77	19.53696823
433.973	19.54683206
434.176	19.55005906
434.379	19.54747134
434.582	19.55266615
434.785	19.55093368
434.988	19.55159154
435.19	19.55328575
435.393	19.55528557
435.596	19.56158022
435.799	19.5669139
436.002	19.57590875
436.205	19.58626934
436.407	19.57898066
436.61	19.57500496
436.813	19.57666919
437.016	19.59267313
437.218	19.60046723
437.421	19.60400571
437.624	19.60435674
437.827	19.60712186
438.029	19.60350727
438.232	19.58701176
438.435	19.57711482
438.637	19.57656747
438.84	19.5750526
439.043	19.58324455
439.245	19.57097793
439.448	19.5681882
439.65	19.56140268
439.853	19.55982286
440.056	19.55796908
440.258	19.56438723
440.461	19.55839504
440.663	19.57114532
440.866	19.5679142
441.068	19.57150079
441.271	19.56565382
441.473	19.56723441
441.676	19.56605276
441.878	19.5680112
442.081	19.57182873
442.283	19.58030758
442.486	19.58830838
442.688	19.59735712
442.89	19.60169879
443.093	19.60701344
443.295	19.59219991
443.498	19.5998556
443.7	19.60578738
443.902	19.60436181
444.105	19.60598775
444.307	19.60083751
444.509	19.59986923
444.712	19.60663855
444.914	19.60436386
445.116	19.59421049
445.319	19.58917978
445.521	19.58297555
445.723	19.57752633
445.925	19.58328935
446.128	19.57713465
446.33	19.56491797
446.532	19.55729755
446.734	19.55360492
446.936	19.54896105
447.139	19.54226744
447.341	19.53546649
447.543	19.5449746
447.745	19.54550412
447.947	19.54941272
448.149	19.55489408
448.351	19.55010728
448.553	19.55441855
448.755	19.55218937
448.958	19.55161415
449.16	19.55172967
449.362	19.55740234
449.564	19.56111017
449.766	19.56061889
449.968	19.56310025
450.17	19.55072482
450.372	19.55186914
450.574	19.55013197
450.776	19.54972144
450.978	19.54768899
451.179	19.55069268
451.381	19.55188158
451.583	19.55318722
451.785	19.5522631
451.987	19.54861007
452.189	19.54473798
452.391	19.5498379
452.593	19.54444467
452.795	19.54535932
452.996	19.55221706
453.198	19.55294764
453.4	19.54471812
453.602	19.54281605
453.804	19.55150756
454.005	19.55728375
454.207	19.55324249
454.409	19.55738676
454.611	19.55795317
454.812	19.55866993
455.014	19.5599195
455.216	19.5595742
455.417	19.55452752
455.619	19.54747676
455.821	19.5490878
456.022	19.54424794
456.224	19.54872496
456.426	19.5501446
456.627	19.55006715
456.829	19.54756926
457.031	19.55082365
457.232	19.54399497
457.434	19.54838707
457.635	19.55488544
457.837	19.55390361
458.038	19.55177353
458.24	19.54616676
458.441	19.55161099
458.643	19.55309519
458.844	19.55438488
459.046	19.55657702
459.247	19.55648101
459.449	19.55574901
459.65	19.55789985
459.852	19.56204639
460.053	19.55761855
460.254	19.55366091
460.456	19.55362905
460.657	19.54562349
460.859	19.53547387
461.06	19.54144909
461.261	19.53811781
461.463	19.54546394
461.664	19.54566887
461.865	19.54266407
462.066	19.54705995
462.268	19.54982974
462.469	19.54553252
462.67	19.54027613
462.872	19.54546453
463.073	19.54412738
463.274	19.54448053
463.475	19.54221022
463.676	19.55283865
463.878	19.56277542
464.079	19.56475025
464.28	19.56851088
464.481	19.5790556
464.682	19.5794902
464.883	19.58731368
465.085	19.59418479
465.286	19.59490895
465.487	19.59860976
465.688	19.59512063
465.889	19.5937157
466.09	19.59976601
466.291	19.60368978
466.492	19.60652355
466.693	19.61772562
466.894	19.616844
467.095	19.62190806
467.296	19.62623489
467.497	19.63566359
467.698	19.64008841
467.899	19.63224899
468.1	19.62680443
468.301	19.63141299
468.502	19.636973
468.703	19.6422804
468.903	19.64131309
469.104	19.64521699
469.305	19.64661441
469.506	19.6571116
469.707	19.65997743
469.908	19.66146409
470.109	19.66793544
470.309	19.66452791
470.51	19.66895516
470.711	19.66577784
470.912	19.67372097
471.112	19.67949972
471.313	19.68513887
471.514	19.69484783
471.715	19.69523335
471.915	19.69603222
472.116	19.70655786
472.317	19.7105344
472.517	19.71216887
472.718	19.72316494
472.919	19.72557115
473.119	19.73509361
473.32	19.7420456
473.521	19.75037844
473.721	19.75488231
473.922	19.76013852
474.122	19.76899043
474.323	19.77026414
474.523	19.78477863
474.724	19.79044653
474.925	19.80372949
475.125	19.80431982
475.326	19.81401581
475.526	19.81844553
475.727	19.82011431
475.927	19.82823336
476.127	19.8381657
476.328	19.84551927
476.528	19.85761439
476.729	19.86940155
476.929	19.87963957
477.13	19.88668526
477.33	19.89224739
477.53	19.89534396
477.731	19.902753
477.931	19.90629573
478.131	19.91207868
478.332	19.91120717
478.532	19.92086483
478.732	19.91977168
478.933	19.92468872
479.133	19.92433803
479.333	19.93204354
479.533	19.94243819
479.734	19.94635883
479.934	19.95244656
480.134	19.95062734
480.334	19.95529106
480.534	19.9584177
480.735	19.96228886
480.935	19.9638113
481.135	19.96105405
481.335	19.96975263
481.535	19.97461605
481.735	19.97724337
481.935	19.98374711
482.136	19.99610432
482.336	19.99977524
482.536	20.00850705
482.736	20.01457257
482.936	20.0195836
483.136	20.02207969
483.336	20.0258558
483.536	20.02800173
483.736	20.03046928
483.936	20.03705083
484.136	20.04468928
484.336	20.05973812
484.536	20.06971309
484.736	20.07863096
484.936	20.08885502
485.135	20.09610291
485.335	20.09934283
485.535	20.1026969
485.735	20.11822943
485.935	20.12993403
486.135	20.12878037
486.335	20.12967962
486.534	20.1337033
486.734	20.13756826
486.934	20.14324706
487.134	20.15652872
487.334	20.16308312
487.533	20.17239428
487.733	20.18059729
487.933	20.18085593
488.133	20.18897192
488.332	20.19071208
488.532	20.19769434
488.732	20.20224986
488.931	20.20481437
489.131	20.205824
489.331	20.20697825
489.53	20.21350932
489.73	20.21153908
489.93	20.20901217
490.129	20.21986266
490.329	20.22534411
490.528	20.22849151
490.728	20.23994269
490.928	20.25367762
491.127	20.25954274
491.327	20.26253121
491.526	20.26481446
491.726	20.27223931
491.925	20.2742173
492.125	20.28428773
492.324	20.28338215
492.524	20.28246903
492.723	20.28622403
492.922	20.28916566
493.122	20.29277799
493.321	20.29311753
493.521	20.29985687
493.72	20.30352363
493.919	20.31257086
494.119	20.31553705
494.318	20.30654238
494.517	20.30899422
494.717	20.30904991
494.916	20.30510661
495.115	20.30008917
495.315	20.29381213
495.514	20.29849666
495.713	20.30043363
495.912	20.29653316
496.112	20.30475825
496.311	20.30483188
496.51	20.2996973
496.709	20.30696446
496.908	20.30561219
497.108	20.30744954
497.307	20.3078239
497.506	20.31084913
497.705	20.3154943
497.904	20.31846142
498.103	20.31935517
498.302	20.31925497
498.501	20.32762482
498.701	20.33167145
498.9	20.33462973
499.099	20.34271337
499.298	20.34996691
499.497	20.35977913
499.696	20.35470443
499.895	20.36006845
500.094	20.37054664
500.293	20.37301866
500.492	20.38388738
500.691	20.39177668
500.89	20.39851485
501.088	20.40119278
501.287	20.40803625
501.486	20.41590614
501.685	20.42722539
501.884	20.4333349
502.083	20.43612634
502.282	20.44370324
502.481	20.451386
502.679	20.45949071
502.878	20.47002601
503.077	20.4823871
503.276	20.48968005
503.475	20.49742996
503.673	20.50234151
503.872	20.51712551
504.071	20.52621915
504.27	20.53182656
504.468	20.54196691
504.667	20.54833152
504.866	20.56195761
505.064	20.57055692
505.263	20.57652563
505.462	20.5832537
505.66	20.59700568
505.859	20.60415167
506.058	20.61186907
506.256	20.62919327
506.455	20.6447182
506.653	20.65786381
506.852	20.66492344
507.05	20.67558021
507.249	20.68382999
507.448	20.69317616
507.646	20.7013011
507.845	20.71381363
508.043	20.7162016
508.242	20.72855297
508.44	20.73858779
508.638	20.747847
508.837	20.754649
509.035	20.75975861
509.234	20.77668935
509.432	20.78426315
509.631	20.79810707
509.829	20.80906044
510.027	20.82016756
510.226	20.83231536
510.424	20.83852511
510.622	20.84724648
510.821	20.85576259
511.019	20.87314204
511.217	20.88788725
511.415	20.89775399
511.614	20.91462864
511.812	20.92573161
512.01	20.93886991
512.208	20.96038597
512.407	20.97928573
512.605	20.99104457
512.803	21.01037248
513.001	21.02892816
513.199	21.05513801
513.398	21.06690459
513.596	21.09100913
513.794	21.11324042
513.992	21.12847918
514.19	21.14961278
514.388	21.17839611
514.586	21.19929146
514.784	21.21878223
514.982	21.24426202
515.18	21.26683437
515.378	21.28762884
515.576	21.31942422
515.774	21.34673035
515.972	21.37644835
516.17	21.4072322
516.368	21.44069172
516.566	21.4689188
516.764	21.498753
516.962	21.52723697
517.16	21.55788243
517.358	21.58602897
517.556	21.61626186
517.754	21.65246891
517.952	21.67266621
518.149	21.70478546
518.347	21.73435686
518.545	21.75619534
518.743	21.78708469
518.941	21.81537627
519.138	21.84693196
519.336	21.87230094
519.534	21.9050963
519.732	21.93239881
519.929	21.95525208
520.127	21.98583848
520.325	22.0115375
520.523	22.03236434
520.72	22.06121003
520.918	22.09086399
521.116	22.1211317
521.313	22.15308195
521.511	22.18062309
521.709	22.21564688
521.906	22.24374351
522.104	22.28028895
522.301	22.31292059
522.499	22.34371094
522.696	22.37516137
522.894	22.4081407
523.092	22.44791546
523.289	22.47747162
523.487	22.51460622
523.684	22.54719247
523.882	22.57887374
524.079	22.61505631
524.276	22.64888271
524.474	22.68762921
524.671	22.73054234
524.869	22.76214561
525.066	22.79926192
525.264	22.83692764
525.461	22.87068234
525.658	22.9088665
525.856	22.93632149
526.053	22.97218735
526.25	23.00786889
526.448	23.04317415
526.645	23.08099971
526.842	23.12846676
527.039	23.16380479
527.237	23.19925273
527.434	23.23448224
527.631	23.27125584
527.828	23.30858927
528.026	23.34835721
528.223	23.38357287
528.42	23.41978387
528.617	23.4553498
528.814	23.48888029
529.012	23.5353939
529.209	23.57356671
529.406	23.60005396
529.603	23.63914344
529.8	23.67806
529.997	23.71700821
530.194	23.76072669
530.391	23.7997262
530.588	23.84000787
530.785	23.88383676
530.982	23.91070244
531.179	23.95719971
531.376	23.99838413
531.573	24.04525034
531.77	24.0830066
531.967	24.11876435
532.164	24.16053302
532.361	24.20395199
532.558	24.24376029
532.755	24.28124696
532.952	24.32296816
533.149	24.3580522
533.346	24.40508713
533.543	24.45571836
533.739	24.49979912
533.936	24.54736194
534.133	24.59436842
534.33	24.62999694
534.527	24.67479349
534.723	24.71463402
534.92	24.75810694
535.117	24.80866845
535.314	24.84521594
535.51	24.88274467
535.707	24.92489095
535.904	24.96631601
536.1	25.01316917
536.297	25.05396991
536.494	25.09232584
536.69	25.13532193
536.887	25.18093994
537.084	25.2234044
537.28	25.26170429
537.477	25.30100502
537.674	25.34046208
537.87	25.37577237
538.067	25.41169485
538.263	25.45399415
538.46	25.49505952
538.656	25.53384165
538.853	25.57797948
539.049	25.62479967
539.246	25.6617712
539.442	25.71560868
539.639	25.75916384
539.835	25.80012973
540.032	25.8450249
540.228	25.89126047
540.424	25.93840874
540.621	25.99844175
540.817	26.04938227
541.014	26.09637416
541.21	26.14819087
541.406	26.19965972
541.603	26.24051159
541.799	26.28566839
541.995	26.34519114
542.191	26.3928562
542.388	26.44473191
542.584	26.4959199
542.78	26.55015476
542.976	26.59526767
543.173	26.63427083
543.369	26.69150937
543.565	26.73133416
543.761	26.78163342
543.957	26.83360004
544.154	26.87776104
544.35	26.93259828
544.546	26.97040037
544.742	27.00744246
544.938	27.05200067
545.134	27.09965466
545.33	27.13085426
545.526	27.16938114
545.722	27.21941483
545.919	27.26899376
546.115	27.31023277
546.311	27.35324233
546.507	27.38661628
546.703	27.43583466
546.899	27.47311283
547.095	27.52006489
547.29	27.56448793
547.486	27.59815527
547.682	27.64770831
547.878	27.69254466
548.074	27.73205145
548.27	27.78476596
548.466	27.81866639
548.662	27.87879181
548.858	27.92470869
549.053	27.9694624
549.249	28.01472015
549.445	28.07229931
549.641	28.128467
549.837	28.17127887
550.032	28.21787148
550.228	28.25897806
550.424	28.30914799
550.62	28.36096245
550.815	28.39943169
551.011	28.44077071
551.207	28.48296426
551.402	28.5179785
551.598	28.56444111
551.794	28.60491582
551.989	28.649368
552.185	28.69032005
552.381	28.73204729
552.576	28.78030982
552.772	28.81082971
552.967	28.85339229
553.163	28.89604516
553.359	28.9417006
553.554	28.97690613
553.75	29.01951724
553.945	29.06643565
554.141	29.10773127
554.336	29.15017551
554.532	29.19525895
554.727	29.23391535
554.922	29.28973961
555.118	29.34084221
555.313	29.38828836
555.509	29.43873063
555.704	29.4795577
555.899	29.52287182
556.095	29.56153756
556.29	29.61905811
556.486	29.6654815
556.681	29.70961331
556.876	29.76548798
557.071	29.81058629
557.267	29.86176336
557.462	29.89618769
557.657	29.94165991
557.853	29.97426546
558.048	30.01752908
558.243	30.06299689
558.438	30.11044115
558.633	30.14948974
558.829	30.1962618
559.024	30.22916708
559.219	30.27342694
559.414	30.31402033
559.609	30.35674935
559.804	30.40888562
559.999	30.44914765
560.194	30.49572946
560.39	30.52806024
560.585	30.56652056
560.78	30.60127634
560.975	30.6346813
561.17	30.67271662
561.365	30.70120236
561.56	30.74777482
561.755	30.79163017
561.95	30.84061322
562.145	30.88021222
562.34	30.90710377
562.535	30.95289005
562.729	31.00079806
562.924	31.04880801
563.119	31.09300209
563.314	31.12869776
563.509	31.17258305
563.704	31.22129615
563.899	31.26214026
564.093	31.30969564
564.288	31.35295828
564.483	31.3926929
564.678	31.43826656
564.873	31.48414313
565.067	31.53034047
565.262	31.57193825
565.457	31.62337079
565.652	31.66347348
565.846	31.70568762
566.041	31.74676472
566.236	31.77873477
566.43	31.84048122
566.625	31.87332651
566.82	31.90928342
567.014	31.94816187
567.209	31.99348375
567.404	32.03917945
567.598	32.08320551
567.793	32.12395197
567.987	32.1652064
568.182	32.19498372
568.376	32.23625462
568.571	32.27335287
568.765	32.31629174
568.96	32.35500706
569.154	32.40062537
569.349	32.44476146
569.543	32.48817398
569.738	32.52004551
569.932	32.56061792
570.127	32.59837139
570.321	32.65240552
570.515	32.68329283
570.71	32.72868709
570.904	32.77423611
571.098	32.81198836
571.293	32.84554791
571.487	32.8827331
571.681	32.92086903
571.876	32.95466887
572.07	33.00302145
572.264	33.05419818
572.458	33.09694323
572.653	33.14686013
572.847	33.1959979
573.041	33.2437439
573.235	33.28218467
573.43	33.31583551
573.624	33.35526974
573.818	33.4142256
574.012	33.45629992
574.206	33.51277395
574.4	33.56379608
574.594	33.60521112
574.788	33.64658864
574.983	33.68460801
575.177	33.722986
575.371	33.78215251
575.565	33.84695796
575.759	33.89342769
575.953	33.93258216
576.147	33.96169624
576.341	34.00050346
576.535	34.04294599
576.729	34.08335065
576.923	34.11082005
577.117	34.15076
577.31	34.20010954
577.504	34.25148598
577.698	34.2957752
577.892	34.336221
578.086	34.38269632
578.28	34.42167713
578.474	34.46382346
578.668	34.51832353
578.861	34.57118082
579.055	34.61541804
579.249	34.66458117
579.443	34.69797956
579.636	34.72938817
579.83	34.77405504
580.024	34.82295365
580.218	34.87929658
580.411	34.92305949
580.605	34.96921483
580.799	35.01483505
580.992	35.05031671
581.186	35.10134116
581.38	35.13665268
581.573	35.18356773
581.767	35.21774507
581.961	35.25808374
582.154	35.29361517
582.348	35.32368024
582.541	35.35006339
582.735	35.37820956
582.928	35.40921951
583.122	35.44675273
583.315	35.48787979
583.509	35.52507308
583.702	35.55604556
583.896	35.59161884
584.089	35.63676353
584.283	35.6724567
584.476	35.72725944
584.67	35.75966484
584.863	35.79373601
585.056	35.84578635
585.25	35.87033051
585.443	35.91308561
585.636	35.94339417
585.83	36.00405308
586.023	36.04720067
586.216	36.0963364
586.41	36.14829753
586.603	36.20040951
586.796	36.24661565
586.989	36.28537493
587.183	36.32641512
587.376	36.35670404
587.569	36.40023307
587.762	36.45476567
587.955	36.49426516
588.149	36.54001874
588.342	36.585754
588.535	36.6228881
588.728	36.67562917
588.921	36.72995668
589.114	36.7731018
589.307	36.82590293
589.5	36.86621376
589.693	36.92656584
589.886	36.95889507
590.08	36.99895273
590.273	37.03789578
590.466	37.078461
590.659	37.13363184
590.852	37.18500063
591.044	37.24104791
591.237	37.29298204
591.43	37.35635533
591.623	37.40085627
591.816	37.43984685
592.009	37.48803769
592.202	37.53262619
592.395	37.57459305
592.588	37.60350483
592.781	37.63431457
592.973	37.67519129
593.166	37.72511577
593.359	37.77531582
593.552	37.82326162
593.745	37.86099351
593.937	37.893043
594.13	37.94035052
594.323	37.99718519
594.515	38.04608424
594.708	38.08282378
594.901	38.12178976
595.094	38.15886414
595.286	38.21228358
595.479	38.24523966
595.672	38.28979118
595.864	38.34012327
596.057	38.38351043
596.249	38.42926159
596.442	38.47478014
596.635	38.52360805
596.827	38.58622455
597.02	38.62325525
597.212	38.66864007
597.405	38.70758309
597.597	38.75206525
597.79	38.78948205
597.982	38.86050036
598.175	38.90691521
598.367	38.9429609
598.559	38.97520188
598.752	39.00586722
598.944	39.04056871
599.137	39.083223
599.329	39.11249138
599.521	39.15684771
599.714	39.19706434
599.906	39.23675046
600.098	39.28618169
600.291	39.31695375
600.483	39.34311349
600.675	39.38852058
600.868	39.42074346
601.06	39.47205365
601.252	39.51274518
601.444	39.55566315
601.637	39.60360948
601.829	39.64523971
602.021	39.66124494
602.213	39.69177789
602.405	39.73482679
602.597	39.78029807
602.789	39.82660447
602.982	39.87270795
603.174	39.90527384
603.366	39.94175243
603.558	39.97592938
603.75	40.02888567
603.942	40.05416257
604.134	40.09209628
604.326	40.14107301
604.518	40.19256777
604.71	40.23898277
604.902	40.28806171
605.094	40.31873618
605.286	40.35790996
605.478	40.3858417
605.67	40.4116523
605.862	40.44988598
606.054	40.49422883
606.246	40.53790335
606.437	40.57012978
606.629	40.60096799
606.821	40.6374924
607.013	40.67137651
607.205	40.70291118
607.397	40.74425877
607.588	40.79347156
607.78	40.81284128
607.972	40.85939182
608.164	40.87740778
608.355	40.91692067
608.547	40.94313619
608.739	40.95614924
608.93	40.98496038
609.122	41.01651773
609.314	41.04535194
609.505	41.08056441
609.697	41.11049852
609.889	41.14256112
610.08	41.17573421
610.272	41.20509929
610.463	41.25200025
610.655	41.29493412
610.847	41.32045185
611.038	41.35766322
611.23	41.40401958
611.421	41.43062518
611.613	41.46217743
611.804	41.49769392
611.996	41.52924205
612.187	41.56948939
612.379	41.60041609
612.57	41.64565547
612.761	41.68547468
612.953	41.70750992
613.144	41.73389344
613.336	41.76720143
613.527	41.81539828
613.718	41.8414101
613.91	41.87305847
614.101	41.89933303
614.292	41.93766088
614.483	41.962798
614.675	41.9835124
614.866	42.02334923
615.057	42.04864678
615.248	42.07831851
615.44	42.10342372
615.631	42.1318676
615.822	42.15708357
616.013	42.17516019
616.204	42.20042986
616.396	42.21904766
616.587	42.22688579
616.778	42.25097834
616.969	42.28620833
617.16	42.32204854
617.351	42.34428215
617.542	42.36779369
617.733	42.39982717
617.924	42.42970956
618.115	42.46033011
618.306	42.47219368
618.497	42.48977555
618.688	42.51843313
618.879	42.52996524
619.07	42.56180722
619.261	42.57579213
619.452	42.6097327
619.643	42.61913185
619.834	42.6403519
620.025	42.66406184
620.216	42.6745839
620.407	42.69493467
620.597	42.71856743
620.788	42.74081844
620.979	42.74427253
621.17	42.75083347
621.361	42.77057823
621.551	42.77547369
621.742	42.78833245
621.933	42.80234601
622.124	42.81911261
622.314	42.83675789
622.505	42.84409386
622.696	42.86625258
622.886	42.89804023
623.077	42.90828158
623.268	42.93221548
623.458	42.95332238
623.649	42.98315106
623.84	42.99771756
624.03	43.02501121
624.221	43.04564809
624.411	43.06172355
624.602	43.09261078
624.792	43.10687997
624.983	43.14020072
625.173	43.16751234
625.364	43.18853155
625.554	43.21470508
625.745	43.2354772
625.935	43.2661747
626.126	43.29023381
626.316	43.30765753
626.507	43.33108415
626.697	43.34815915
626.887	43.36711392
627.078	43.38727209
627.268	43.40265888
627.458	43.4249837
627.649	43.43087811
627.839	43.45721379
628.029	43.46756749
628.22	43.50216811
628.41	43.51853343
628.6	43.52998296
628.79	43.56235974
628.981	43.57889432
629.171	43.60841505
629.361	43.64202715
629.551	43.66974042
629.741	43.71043165
629.932	43.71842253
630.122	43.73656797
630.312	43.76767785
630.502	43.77984819
630.692	43.79396562
630.882	43.81161227
631.072	43.83251185
631.262	43.8532721
631.452	43.8710428
631.642	43.90470322
631.832	43.93123303
632.022	43.94636192
632.212	43.96228906
632.402	43.98820949
632.592	44.00603896
632.782	44.02755259
632.972	44.03512573
633.162	44.04858009
633.352	44.04929108
633.542	44.05908872
633.732	44.07086717
633.922	44.08384791
634.111	44.09899162
634.301	44.10990458
634.491	44.14802875
634.681	44.18470099
634.871	44.19388648
635.06	44.2173816
635.25	44.22932562
635.44	44.24544741
635.63	44.25940621
635.819	44.26179185
636.009	44.29214888
636.199	44.31273849
636.388	44.32009383
636.578	44.35261658
636.768	44.35683256
636.957	44.38458865
637.147	44.4162567
637.337	44.44841987
637.526	44.45379989
637.716	44.4587009
637.905	44.48772714
638.095	44.50308095
638.284	44.51452668
638.474	44.507498
638.663	44.50002714
638.853	44.52538243
639.042	44.53197478
639.232	44.55317534
639.421	44.55477372
639.611	44.56642454
639.8	44.58365101
639.99	44.5881184
640.179	44.60009916
640.368	44.61269361
640.558	44.60143613
640.747	44.61617733
640.936	44.61856177
641.126	44.60790565
641.315	44.6041728
641.504	44.6168354
641.694	44.61385162
641.883	44.60659083
642.072	44.61365349
642.261	44.61499835
642.451	44.64178065
642.64	44.65294957
642.829	44.66169751
643.018	44.67307874
643.207	44.68456292
643.397	44.69742559
643.586	44.70305416
643.775	44.71440258
643.964	44.71878788
644.153	44.7199605
644.342	44.73785472
644.531	44.77516355
644.72	44.77691938
644.909	44.7980191
645.098	44.81163758
645.287	44.81806656
645.476	44.84371316
645.665	44.87396117
645.854	44.89254181
646.043	44.89759926
646.232	44.92069599
646.421	44.91158884
646.61	44.92215627
646.799	44.93326325
646.988	44.94737769
647.177	44.95679991
647.365	44.97712597
647.554	44.99453495
647.743	45.00470849
647.932	45.02068215
648.121	45.0347071
648.309	45.05723871
648.498	45.06059203
648.687	45.08248722
648.876	45.09692218
649.064	45.10940306
649.253	45.12413671
649.442	45.11849653
649.63	45.13063916
649.819	45.13902307
650.008	45.15380464
650.196	45.16899311
650.385	45.189784
650.574	45.20924432
650.762	45.19901475
650.951	45.20999009
651.139	45.21701948
651.328	45.22123829
651.516	45.22620503
651.705	45.22862392
651.893	45.26292899
652.082	45.29571617
652.27	45.29097832
652.459	45.28690471
652.647	45.29643084
652.836	45.29725673
653.024	45.30408349
653.213	45.30597853
653.401	45.3256977
653.589	45.32862637
653.778	45.34564201
653.966	45.35291806
654.154	45.36891676
654.343	45.38126773
654.531	45.39313021
654.719	45.42452393
654.908	45.42685709
655.096	45.44590807
655.284	45.45043514
655.472	45.46617761
655.661	45.47974866
655.849	45.47115867
656.037	45.44963982
656.225	45.4768119
656.413	45.49849313
656.601	45.52481385
656.79	45.54802661
656.978	45.56234287
657.166	45.5824439
657.354	45.59348503
657.542	45.6184099
657.73	45.61717307
657.918	45.62606431
658.106	45.6395015
658.294	45.65857541
658.482	45.65584663
658.67	45.66806956
658.858	45.67876079
659.046	45.69916524
659.234	45.72120778
659.422	45.72172499
659.61	45.74727614
659.798	45.75082707
659.986	45.7825162
660.173	45.76970344
660.361	45.766545
660.549	45.74820549
660.737	45.75049724
660.925	45.76230936
661.113	45.76414393
661.3	45.77087545
661.488	45.76776833
661.676	45.7927131
661.864	45.79610218
662.051	45.8068865
662.239	45.81258651
662.427	45.83109544
662.614	45.8382119
662.802	45.85588052
662.99	45.84484087
663.177	45.84199401
663.365	45.8535495
663.553	45.85247892
663.74	45.86599982
663.928	45.87595767
664.115	45.88712552
664.303	45.90085419
664.49	45.92330495
664.678	45.92771668
664.866	45.9379318
665.053	45.94441336
665.24	45.96099288
665.428	45.9675963
665.615	45.96086559
665.803	45.97973632
665.99	45.96916345
666.178	45.9721402
666.365	45.97583718
666.552	45.97009483
666.74	45.96968745
666.927	45.9790774
667.114	45.99715324
667.302	46.01797449
667.489	46.02655822
667.676	46.02553522
667.864	46.03810889
668.051	46.03320779
668.238	46.04788447
668.425	46.07304111
668.613	46.08179129
668.8	46.0869395
668.987	46.09962265
669.174	46.10001305
669.361	46.09783462
669.548	46.10462442
669.736	46.12699259
669.923	46.13179219
670.11	46.14622456
670.297	46.17215902
670.484	46.18036037
670.671	46.18745746
670.858	46.19746073
671.045	46.19487223
671.232	46.19410319
671.419	46.1939484
671.606	46.2006575
671.793	46.1959348
671.98	46.20704755
672.167	46.20723461
672.354	46.195478
672.541	46.19454906
672.728	46.18902093
672.915	46.18445785
673.101	46.18111024
673.288	46.18880918
673.475	46.19228709
673.662	46.18331014
673.849	46.19095156
674.035	46.16831514
674.222	46.14689388
674.409	46.16134049
674.596	46.17035826
674.783	46.16161717
674.969	46.17510707
675.156	46.17844936
675.343	46.19187774
675.529	46.20706341
675.716	46.21806228
675.903	46.23692362
676.089	46.2324718
676.276	46.22152147
676.462	46.22580629
676.649	46.22480848
676.836	46.22995988
677.022	46.23988012
677.209	46.24265603
677.395	46.24716281
677.582	46.24332686
677.768	46.24905786
677.955	46.28387955
678.141	46.30680079
678.328	46.30753814
678.514	46.30029837
678.701	46.29292482
678.887	46.27877907
679.073	46.27680344
679.26	46.26427694
679.446	46.27309746
679.632	46.26165776
679.819	46.26691607
680.005	46.28517307
680.191	46.29951322
680.378	46.29927993
680.564	46.3073293
680.75	46.3189932
680.936	46.31356924
681.123	46.32121648
681.309	46.31968466
681.495	46.31644144
681.681	46.31187447
681.867	46.28170712
682.054	46.26560455
682.24	46.27167199
682.426	46.26131658
682.612	46.27613078
682.798	46.27204855
682.984	46.27243735
683.17	46.28873456
683.356	46.28448812
683.542	46.28129833
683.728	46.27320524
683.914	46.26802451
684.1	46.26284327
684.286	46.26706563
684.472	46.26079677
684.658	46.26932917
684.844	46.27449461
685.03	46.25380675
685.216	46.25105211
685.402	46.24605249
685.588	46.24874333
685.774	46.25393297
685.96	46.24901407
686.145	46.23406717
686.331	46.23938152
686.517	46.23001029
686.703	46.22774519
686.889	46.23298672
687.074	46.195853
687.26	46.18978024
687.446	46.20431948
687.631	46.18579297
687.817	46.17779609
688.003	46.17090115
688.189	46.15083486
688.374	46.17075324
688.56	46.14645597
688.745	46.15781942
688.931	46.16352431
689.117	46.15969605
689.302	46.14929214
689.488	46.1810729
689.673	46.1672953
689.859	46.17535261
690.044	46.161636
690.23	46.16061435
690.415	46.1704142
690.601	46.18705963
690.786	46.16594847
690.972	46.18943476
691.157	46.19610724
691.343	46.17514826
691.528	46.19694911
691.713	46.20293855
691.899	46.21051655
692.084	46.24423458
692.269	46.23842437
692.455	46.2356951
692.64	46.22698594
692.825	46.24226987
693.011	46.24232736
693.196	46.25292591
693.381	46.23274162
693.566	46.26211897
693.752	46.25446999
693.937	46.26610788
694.122	46.25887409
694.307	46.25686131
694.492	46.23478554
694.678	46.25585476
694.863	46.23702504
695.048	46.21345918
695.233	46.21983301
695.418	46.21317411
695.603	46.18774651
695.788	46.18117945
695.973	46.17423271
696.158	46.1810836
696.343	46.20681484
696.528	46.20138374
696.713	46.22071443
696.898	46.23813898
697.083	46.25250608
697.268	46.2461632
697.453	46.23935692
697.638	46.24009886
697.823	46.25065127
698.008	46.26370341
698.192	46.24961127
698.377	46.26024235
698.562	46.23772729
698.747	46.27360812
698.932	46.29184553
699.117	46.28067493
699.301	46.27361297
699.486	46.27656944
699.671	46.27841828
699.856	46.26678983
700.04	46.26850157
700.225	46.25355692
700.41	46.24984199
700.594	46.20608256
700.779	46.20476011
700.964	46.19135063
701.148	46.17629003
701.333	46.16712445
701.517	46.15190849
701.702	46.13212161
701.887	46.1546235
702.071	46.17032087
702.256	46.15135793
702.44	46.15002078
702.625	46.12539538
702.809	46.1038128
702.994	46.0976475
703.178	46.10202838
703.362	46.10538378
703.547	46.07796933
703.731	46.06699811
703.916	46.03067486
704.1	46.0223322
704.284	46.01692739
704.469	46.02618714
704.653	46.00222574
704.837	46.00478039
705.022	46.01145229
705.206	46.00594546
705.39	46.01701149
705.575	46.01008458
705.759	45.97972028
705.943	45.95919287
706.127	45.95487042
706.311	45.94845774
706.496	45.94709007
706.68	45.95241819
706.864	45.93091737
707.048	45.91928904
707.232	45.93026006
707.416	45.9623859
707.6	45.94156531
707.785	45.92637538
707.969	45.92053237
708.153	45.90257187
708.337	45.89536325
708.521	45.9155555
708.705	45.90091241
708.889	45.87639434
709.073	45.86218313
709.257	45.85090289
709.441	45.82083249
709.624	45.78145543
709.808	45.7940168
709.992	45.81921803
710.176	45.80333252
710.36	45.80332273
710.544	45.77609802
710.728	45.79230821
710.912	45.76113007
711.095	45.72404586
711.279	45.67785753
711.463	45.66189717
711.647	45.66341364
711.83	45.63471188
712.014	45.62574655
712.198	45.60322492
712.382	45.56443954
712.565	45.53219858
712.749	45.53235463
712.933	45.48781433
713.116	45.45525543
713.3	45.46958739
713.483	45.50399504
713.667	45.46453434
713.851	45.42245499
714.034	45.41344748
714.218	45.34805387
714.401	45.32352016
714.585	45.28427015
714.768	45.26569509
714.952	45.24797745
715.135	45.22977387
715.319	45.201923
715.502	45.17911291
715.686	45.14475862
715.869	45.10160335
716.052	45.08455912
716.236	45.04713079
716.419	45.04724621
716.602	45.01810102
716.786	45.0232932
716.969	45.02094192
717.152	44.99916782
717.336	44.92019463
717.519	44.9154025
717.702	44.88072207
717.885	44.82095442
718.069	44.82445994
718.252	44.82370359
718.435	44.79032707
718.618	44.77225168
718.801	44.75493595
718.985	44.73695693
719.168	44.74751489
719.351	44.72296606
719.534	44.71791308
719.717	44.70472806
719.9	44.67358603
720.083	44.67229236
720.266	44.63917632
720.449	44.64054178
720.632	44.63813054
720.815	44.61691955
720.998	44.57356211
721.181	44.57629764
721.364	44.54261229
721.547	44.54493839
721.73	44.56033648
721.913	44.55418198
722.096	44.53863111
722.279	44.5354307
722.461	44.50171977
722.644	44.50487505
722.827	44.50137433
723.01	44.48273151
723.193	44.48271102
723.376	44.48290607
723.558	44.49069662
723.741	44.49279491
723.924	44.46787022
724.107	44.47012668
724.289	44.42416033
724.472	44.4087561
724.655	44.38391043
724.837	44.36826596
725.02	44.36100597
725.203	44.34711028
725.385	44.31002211
725.568	44.31515183
725.75	44.29038433
725.933	44.2733615
726.115	44.27124074
726.298	44.26881211
726.481	44.26377284
726.663	44.23062693
726.845	44.23515992
727.028	44.22379044
727.21	44.20803493
727.393	44.18979607
727.575	44.1530024
727.758	44.15238045
727.94	44.13279199
728.122	44.12712721
728.305	44.12908555
728.487	44.12549612
728.67	44.11372951
728.852	44.12147441
729.034	44.11494727
729.216	44.12051675
729.399	44.12104721
729.581	44.11702879
729.763	44.11582167
729.945	44.10807733
730.128	44.111225
730.31	44.07802593
730.492	44.10913508
730.674	44.07680027
730.856	44.07376958
731.039	44.08174747
731.221	44.07797887
731.403	44.09497084
731.585	44.08015181
731.767	44.09385735
731.949	44.09195754
732.131	44.08090463
732.313	44.08969505
732.495	44.09511921
732.677	44.07824791
732.859	44.08013827
733.041	44.06599726
733.223	44.0382723
733.405	44.02319956
733.587	44.01707088
733.769	44.02116267
733.951	44.02461164
734.132	44.01385601
734.314	43.98382774
734.496	43.96346011
734.678	43.95716529
734.86	43.93534493
735.042	43.95098589
735.223	43.95680925
735.405	43.94785305
735.587	43.908987
735.769	43.9163978
735.95	43.90148585
736.132	43.88042739
736.314	43.8781656
736.495	43.85817574
736.677	43.85658747
736.859	43.87567049
737.04	43.86290908
737.222	43.85433725
737.403	43.82451134
737.585	43.79978788
737.767	43.78841709
737.948	43.78276586
738.13	43.78386815
738.311	43.82097936
738.493	43.82216514
738.674	43.81344198
738.856	43.80646308
739.037	43.78073243
739.219	43.78083535
739.4	43.7607074
739.581	43.75755457
739.763	43.75304688
739.944	43.7516992
740.125	43.74387096
740.307	43.75594464
740.488	43.74910436
740.669	43.73549547
740.851	43.7376053
741.032	43.74056604
741.213	43.75921653
741.395	43.76681665
741.576	43.77287412
741.757	43.7779201
741.938	43.77698847
742.119	43.73533367
742.301	43.71083497
742.482	43.7148545
742.663	43.69050334
742.844	43.67762645
743.025	43.69964076
743.206	43.70722859
743.387	43.685134
743.568	43.68089682
743.749	43.67347702
743.93	43.66049384
744.111	43.65234078
744.292	43.65603051
744.473	43.65710369
744.654	43.65222126
744.835	43.6480427
745.016	43.64413238
745.197	43.63047084
745.378	43.58574807
745.559	43.59190231
745.74	43.58793682
745.921	43.60610454
746.102	43.60715043
746.282	43.59404091
746.463	43.58527897
746.644	43.60212542
746.825	43.58980608
747.006	43.61147984
747.186	43.61680771
747.367	43.60869996
747.548	43.60383742
747.728	43.61056177
747.909	43.58351275
748.09	43.58274496
748.27	43.55058536
748.451	43.55435491
748.632	43.55150955
748.812	43.54871209
748.993	43.55931222
749.173	43.59184126
749.354	43.59723692
749.535	43.57791324
749.715	43.55756539
749.896	43.56014519
750.076	43.55604817
750.257	43.55845935
750.437	43.54436818
750.618	43.52806057
750.798	43.53554875
750.978	43.52636659
751.159	43.52068936
751.339	43.48962175
751.52	43.49847987
751.7	43.52955131
751.88	43.50245163
752.061	43.51902133
752.241	43.51394538
752.421	43.51776181
752.601	43.5004109
752.782	43.46632576
752.962	43.45957954
753.142	43.44176632
753.322	43.43081595
753.503	43.43550533
753.683	43.4295699
753.863	43.41210316
754.043	43.39703483
754.223	43.40137981
754.403	43.40146391
754.583	43.37799232
754.764	43.36168773
754.944	43.36030293
755.124	43.3842777
755.304	43.36032532
755.484	43.32212556
755.664	43.30603541
755.844	43.28627719
756.024	43.2520279
756.204	43.22434228
756.384	43.21017324
756.564	43.20894451
756.743	43.19475737
756.923	43.13367622
757.103	43.1430995
757.283	43.13043332
757.463	43.13019744
757.643	43.13790101
757.823	43.11718161
758.002	43.0728014
758.182	43.08110212
758.362	43.06688798
758.542	43.03363147
758.721	43.01739136
758.901	43.01253606
759.081	43.00127184
759.261	43.02068666
759.44	43.014563
759.62	43.00877777
759.8	43.01008727
759.979	43.00377978
760.159	42.98835042
760.338	42.97772339
760.518	42.97874356
760.698	43.01561038
760.877	42.97193291
761.057	42.97940066
761.236	42.96332928
761.416	42.98230637
761.595	42.99805758
761.775	43.00779807
761.954	42.95916886
762.133	42.95644172
762.313	42.96525491
762.492	42.99303165
762.672	42.98460885
762.851	43.00786412
763.03	42.99566109
763.21	43.01337839
763.389	43.01593896
763.568	42.98204516
763.748	42.98488454
763.927	43.00954299
764.106	43.04771312
764.286	43.05712308
764.465	43.06640074
764.644	43.09682719
764.823	43.08228255
765.002	43.09248994
765.182	43.1009372
765.361	43.08444882
765.54	43.09543485
765.719	43.09881977
765.898	43.10386867
766.077	43.12112489
766.256	43.13886655
766.435	43.14743761
766.614	43.11239226
766.793	43.09005595
766.972	43.09167457
767.151	43.09907707
767.33	43.1280163
767.509	43.13930996
767.688	43.11561456
767.867	43.10109206
768.046	43.08666613
768.225	43.06265428
768.404	43.07181079
768.583	43.09203857
768.762	43.098498
768.94	43.09211588
769.119	43.10707891
769.298	43.1173788
769.477	43.13528792
769.656	43.11909204
769.834	43.14284299
770.013	43.10131559
770.192	43.1176299
770.37	43.14670999
770.549	43.18232217
770.728	43.19023666
770.906	43.18723585
771.085	43.19271517
771.264	43.19799476
771.442	43.21710769
771.621	43.22928397
771.799	43.24732517
771.978	43.25807918
772.157	43.26029501
772.335	43.23576585
772.514	43.20680152
772.692	43.22397471
772.871	43.22406614
773.049	43.21990408
773.228	43.22269649
773.406	43.25291891
773.584	43.23916805
773.763	43.26165936
773.941	43.2610438
774.119	43.25757235
774.298	43.25089119
774.476	43.21504498
774.655	43.19389497
774.833	43.20635576
775.011	43.21052795
775.189	43.2253867
775.368	43.20034492
775.546	43.1747551
775.724	43.17741789
775.902	43.16984625
776.08	43.19867324
776.259	43.23275763
776.437	43.20841648
776.615	43.22290677
776.793	43.20709222
776.971	43.20478671
777.149	43.19333548
777.327	43.16884283
777.505	43.13752316
777.683	43.11750394
777.861	43.11244682
778.04	43.10026641
778.218	43.130931
778.395	43.13654454
778.573	43.12539884
778.751	43.11110659
778.929	43.08888402
779.107	43.09904417
779.285	43.13483088
779.463	43.13546744
779.641	43.1286072
779.819	43.10268424
779.997	43.09294371
780.174	43.07922547
780.352	43.03922876
780.53	43.05969333
780.708	43.07962923
780.886	43.0808037
781.063	43.09986912
781.241	43.0938612
781.419	43.09161866
781.596	43.06219553
781.774	43.0809192
781.952	43.07180453
782.129	43.07444946
782.307	43.09135894
782.485	43.07975397
782.662	43.06252618
782.84	43.06979183
783.017	43.03350911
783.195	43.02133687
783.372	43.00614822
783.55	43.04175446
783.727	43.02721189
783.905	43.03504069
784.082	43.06213338
784.26	43.05675474
784.437	43.01901626
784.615	42.99156026
784.792	43.00832578
784.969	43.02741529
785.147	43.03252055
785.324	43.0770644
785.501	43.05495992
785.679	43.06414175
785.856	43.09901434
786.033	43.09164155
786.211	43.08171347
786.388	43.08630485
786.565	43.08620398
786.742	43.08788488
786.92	43.08211489
787.097	43.09940849
787.274	43.05334621
787.451	43.04269562
787.628	43.02983208
787.805	43.01480941
787.982	43.02240644
788.16	43.02671621
788.337	43.04118158
788.514	42.99439129
788.691	43.02075851
788.868	43.03214842
789.045	43.02516158
789.222	43.00906921
789.399	43.00243391
789.576	42.98184982
789.753	42.96710539
789.93	42.9780445
790.106	42.97540854
790.283	42.96449888
790.46	42.97144518
790.637	42.97180081
790.814	42.97008854
790.991	42.98452747
791.168	42.99697979
791.344	43.01448291
791.521	43.0077423
791.698	42.97512165
791.875	42.9772012
792.051	42.95900079
792.228	42.99758408
792.405	42.96579719
792.581	42.93874996
792.758	42.96104596
792.935	42.9803337
793.111	42.92715143
793.288	42.89755826
793.465	42.91226947
793.641	42.90033723
793.818	42.90954687
793.994	42.90091763
794.171	42.86653092
794.347	42.88399848
794.524	42.89219053
794.7	42.87975616
794.877	42.86489276
795.053	42.82005072
795.23	42.8440556
795.406	42.84636921
795.583	42.82242841
795.759	42.84438255
795.935	42.82944516
796.112	42.80203745
796.288	42.7609835
796.464	42.74972499
796.641	42.73543479
796.817	42.76084942
796.993	42.82076733
797.169	42.77100134
797.346	42.78407117
797.522	42.8355916
797.698	42.89988461
797.874	42.96298788
798.051	42.93745802
798.227	42.93112813
798.403	42.94494068
798.579	42.96734538
798.755	42.98844893
798.931	43.00073116
799.107	43.03139121
799.283	43.06409755
799.459	43.04927879
799.635	43.05180185
799.811	43.08609008
799.987	43.13980983
800.163	43.12510682
800.339	43.12155254
800.515	43.14747638
800.691	43.11097776
800.867	43.15610676
801.043	43.20705697
801.219	43.18453417
801.395	43.1315989
801.571	43.07746597
801.746	43.10440495
801.922	43.07836514
802.098	43.06656528
802.274	43.05196053
802.45	43.07290245
802.625	43.04826334
802.801	43.00751789
802.977	42.98669874
803.152	43.00257714
803.328	42.96836639
803.504	42.95460183
803.679	42.96394552
803.855	42.90005454
804.031	42.9282853
804.206	42.89813888
804.382	42.86487759
804.557	42.87497518
804.733	42.81343904
804.909	42.75710806
805.084	42.72537137
805.26	42.74513467
805.435	42.7595597
805.61	42.81144165
805.786	42.83141436
805.961	42.83955197
806.137	42.82778274
806.312	42.82465764
806.488	42.77779802
806.663	42.77338421
806.838	42.76679102
807.014	42.78629411
807.189	42.81840273
807.364	42.83634416
807.54	42.90015598
807.715	42.89941021
807.89	42.88608241
808.065	42.92699726
808.241	42.89259056
808.416	42.89038217
808.591	42.86557028
808.766	42.88379127
808.941	42.87755457
809.116	42.85049149
809.291	42.79954147
809.467	42.77156619
809.642	42.73768302
809.817	42.75733451
809.992	42.71903707
810.167	42.73498412
810.342	42.69697372
810.517	42.62977323
810.692	42.621467
810.867	42.56167961
811.042	42.48903413
811.217	42.49139823
811.392	42.50429258
811.567	42.62482902
811.741	42.6146467
811.916	42.61181274
812.091	42.64216408
812.266	42.65164707
812.441	42.6650615
812.616	42.65334455
812.79	42.66632795
812.965	42.68098793
813.14	42.66918502
813.315	42.62014316
813.489	42.50852556
813.664	42.53244834
813.839	42.58759106
814.013	42.67013884
814.188	42.70104926
814.363	42.6991265
814.537	42.74015427
814.712	42.70247715
814.887	42.65903667
815.061	42.60255725
815.236	42.43423468
815.41	42.41503448
815.585	42.3858872
815.759	42.42345754
815.934	42.45569623
816.108	42.45359426
816.283	42.44571127
816.457	42.48473454
816.631	42.55875851
816.806	42.66050542
816.98	42.70711394
817.155	42.81509648
817.329	42.82739228
817.503	42.75341275
817.678	42.74101608
817.852	42.78858629
818.026	42.79709231
818.201	42.90888031
818.375	42.97447991
818.549	43.04701841
818.723	43.07780442
818.897	43.23589617
819.072	43.19542803
819.246	43.30754902
819.42	43.1792454
819.594	43.35615647
819.768	43.40560285
819.942	43.45775946
820.116	43.31410877
820.29	43.24872356
820.465	43.20778396
820.639	43.19838468
820.813	43.15181296
820.987	43.15712186
821.161	43.24003192
821.335	43.27683133
821.509	43.25802014
821.682	43.25736214
821.856	43.14218724
822.03	43.20786093
822.204	43.10270348
822.378	43.1015736
822.552	43.01751119
822.726	43.02882263
822.9	42.93852793
823.073	42.94204047
823.247	42.77045389
823.421	42.63545506
823.595	42.58964856
823.768	42.69314862
823.942	42.62059174
824.116	42.59272386
824.289	42.6663092
824.463	42.67404443
824.637	42.65176367
824.81	42.59976088
824.984	42.55373339
825.158	42.53961136
825.331	42.56696587
825.505	42.50138981
825.678	42.30657115
825.852	42.4664112
826.025	42.56010238
826.199	42.56728582
826.372	42.64102246
826.546	42.67973257
826.719	42.73312855
826.893	42.65094416
827.066	42.68681248
827.24	42.65682113
827.413	42.69919008
827.586	42.79078438
827.76	42.76485407
827.933	42.72126943
828.106	42.77136631
828.28	42.77205781
828.453	42.81881562
828.626	42.80927139
828.799	42.86814878
828.973	42.86513221
829.146	42.92763702
829.319	42.97643152
829.492	42.80372643
829.665	42.67725078
829.839	42.72754095
830.012	42.70861115
830.185	42.71529418
830.358	42.77840922
830.531	42.88700499
830.704	42.92330375
830.877	42.94236386
831.05	42.88085591
831.223	42.83021649
831.396	42.84238995
831.569	42.79877395
831.742	42.7471457
831.915	42.81350601
832.088	42.84982006
832.261	42.82816024
832.434	42.87753053
832.607	42.84288235
832.779	42.85092586
832.952	42.90166382
833.125	42.92900391
833.298	42.94666923
833.471	42.84793845
833.643	42.86863791
833.816	42.89392518
833.989	42.89392617
834.162	42.9000826
834.334	42.88405342
834.507	42.93644051
834.68	42.97585034
834.852	43.04245573
835.025	43.01546964
835.198	43.04049525
835.37	43.06614579
835.543	42.99831506
835.715	43.03196892
835.888	43.02918772
836.061	43.00272423
836.233	43.07868538
836.406	43.01885554
836.578	43.05502744
836.751	43.04286012
836.923	43.18553505
837.095	43.24496281
837.268	43.1575569
837.44	43.1242019
837.613	42.98027939
837.785	42.94634577
837.957	42.89462814
838.13	42.80528301
838.302	42.80770358
838.474	42.72505605
838.647	42.84016283
838.819	42.87313985
838.991	42.90840291
839.163	42.87756119
839.336	42.85861369
839.508	42.91289503
839.68	42.75272177
839.852	42.75836021
840.024	42.97413448
840.196	42.97175192
840.368	43.05039385
840.541	42.94743416
840.713	42.92584384
840.885	42.94255793
841.057	42.86740606
841.229	43.11429195
841.401	43.05027061
841.573	43.2047107
841.745	43.11038337
841.917	43.22723674
842.089	43.4049436
842.261	43.47257392
842.432	43.4443215
842.604	43.37832732
842.776	43.53955668
842.948	43.52826654
843.12	43.47329213
843.292	43.68295226
843.464	43.55370146
843.635	43.351312
843.807	43.45819275
843.979	43.62433386
844.151	43.59412666
844.322	43.53031323
844.494	43.56524852
844.666	43.57629148
844.837	43.51742778
845.009	43.75193675
845.181	43.79995038
845.352	44.0983478
845.524	43.94500454
845.695	43.75349016
845.867	43.56667818
846.039	43.59771549
846.21	43.52715239
846.382	43.41625314
846.553	43.44755371
846.725	43.51427146
846.896	43.26846687
847.068	43.42534745
847.239	43.47605414
847.41	43.46595648
847.582	43.3155814
847.753	43.46163503
847.925	43.66930185
848.096	43.75508167
848.267	43.95124393
848.439	43.89109215
848.61	43.85539194
848.781	43.6581529
848.952	43.62122782
849.124	43.76156356
849.295	43.82071031
849.466	43.56986442
849.637	43.62409816
849.808	43.93110774
849.98	43.90411545
850.151	43.78660016
850.322	43.93549395
850.493	44.16786326
850.664	44.2403189
850.835	44.30500212
851.006	44.07361939
851.177	43.89219381
851.348	43.68122916
851.519	43.80212789
851.69	43.69372516
851.861	43.39501744
852.032	43.40381464
852.203	43.30324551
852.374	43.32447088
852.545	43.13523855
852.716	42.9779052
852.887	42.93280302
853.057	43.26083704
853.228	43.02296699
853.399	42.8139652
853.57	42.91437546
853.741	43.05195662
853.911	42.79867507
854.082	42.80251218
854.253	42.72730929
854.424	42.53351775
854.594	42.65065245
854.765	42.71442522
854.936	42.82598112
855.106	42.46750821
855.277	42.58881051
855.447	42.69155973
855.618	42.53184744
855.789	42.59798827
855.959	42.43363758
856.13	42.80972791
856.3	42.99367522
856.471	42.93650375
856.641	42.77354032
856.812	42.97172169
856.982	42.86819674
857.153	42.91872723
857.323	42.75801295
857.493	42.92069857
857.664	42.7609837
857.834	42.5395081
858.004	42.58824573
858.175	42.74613854
858.345	43.0303141
858.515	42.63910471
858.686	42.4783174
858.856	42.4651306
859.026	42.65026524
859.196	42.95675005
859.367	42.89173655
859.537	43.21316732
859.707	43.00694864
859.877	43.01143485
860.047	43.06231324
860.217	43.15736035
860.387	43.45254229
860.558	43.49538097
860.728	43.37630675
860.898	43.75030833
861.068	43.36221761
861.238	43.54027638
861.408	43.6955346
861.578	43.84020256
861.748	43.72906714
861.918	43.39562461
862.088	43.74585909
862.257	43.97350453
862.427	44.02806046
862.597	44.00847732
862.767	43.78363657
862.937	44.06540302
863.107	44.08698509
863.277	44.25819033
863.446	43.5421106
863.616	43.43140182
863.786	43.61098008
863.956	43.3533493
864.125	43.41113869
864.295	43.51567809
864.465	43.10496253
864.634	43.4385819
864.804	43.37176642
864.974	43.50564626
865.143	43.47602339
865.313	43.15998631
865.482	43.41644008
865.652	43.46073567
865.822	43.18333162
865.991	43.18641633
866.161	43.06723726
866.33	42.85042165
866.5	42.51804723
866.669	42.14566396
866.838	41.5316762
867.008	42.2127259
867.177	42.36123201
867.347	41.9369705
867.516	41.72458849
867.685	41.41943944
867.855	41.16965383
868.024	40.78915211
868.193	40.57478344
868.363	40.71823961
868.532	40.40769825
868.701	40.24206868
868.87	40.29266505
869.04	39.75919834
869.209	39.59279654
869.378	40.29115803
869.547	39.84090415
869.716	39.98967783
869.885	40.28051159
870.055	40.41673689
870.224	40.81711399
870.393	41.07654357
870.562	41.13437174
870.731	41.20876607
870.9	41.64789393
871.069	41.87241743
871.238	42.42186392
871.407	42.62697692
871.576	42.87519072
871.745	42.55421215
871.914	42.57671412
872.083	42.75578375
872.251	43.01087299
872.42	43.57665511
872.589	44.05604612
872.758	43.99659954
872.927	44.44096866
873.096	45.07971949
873.264	44.78156265
873.433	45.05034942
873.602	44.78560379
873.771	44.46470726
873.939	45.27009549
874.108	44.7936663
874.277	45.01123466
874.445	44.68095
874.614	45.294426
874.783	45.42895678
874.951	44.8415662
875.12	45.5590274
875.288	46.63802518
875.457	45.74271757
875.625	46.0544526
875.794	45.56724127
875.962	45.71130102
876.131	45.592709
876.299	46.02220342
876.468	45.19565689
876.636	44.98798779
876.805	44.93519534
876.973	44.51934546
877.141	44.48919119
877.31	44.88757413
877.478	44.20086915
877.647	44.27842411
877.815	44.42340816
877.983	44.02379113
878.151	43.82824366
878.32	43.65644245
878.488	44.48666899
878.656	44.49357952
878.824	43.59983398
878.992	44.46640624
879.161	44.32155128
879.329	44.51994844
879.497	44.1244036
879.665	44.43546925
879.833	44.26793183
880.001	44.66185948
880.169	44.4607224
880.337	44.69867108
880.505	44.30659791
880.673	44.48490706
880.841	44.46527109
881.009	44.60349118
881.177	43.75805057
881.345	43.10223901
881.513	44.16659187
881.681	42.81469526
881.849	42.90521178
882.017	44.20415386
882.185	43.78917647
882.352	43.4788423
882.52	43.10348168
882.688	42.48628813
882.856	43.26137286
883.024	42.94598824
883.191	41.86541484
883.359	41.64865699
883.527	41.22403051
883.694	40.81114538
883.862	41.02440355
884.03	41.48022865
884.197	40.232155
884.365	40.0755442
884.533	39.34378694
884.7	40.40296925
884.868	41.19902794
885.035	41.41533699
885.203	42.85132475
885.37	42.54023904
885.538	40.68619559
885.705	40.16254841
885.873	41.07009459
886.04	40.97083418
886.208	41.21165797
886.375	40.44586737
886.542	40.64391251
886.71	42.49705932
886.877	42.97312971
