Data from claw1_Reflection_09-43-20-125.txt Node
Date: Wed Dec 06 09:43:20 AEST 2023
User: uqkchene_local
Spectrometer: USB4E02642
Trigger mode: 4
Integration Time (sec): 1.700000E-2
Scans to average: 10
Electric dark correction enabled: true
Nonlinearity correction enabled: false
Boxcar width: 10
XAxis mode: Wavelengths
Number of Pixels in Spectrum: 3648
>>>>>Begin Spectral Data<<<<<
179.217	-146.75324675
179.432	-277.10843373
179.647	-75.6097561
179.862	-28.98550725
180.077	4.20560748
180.293	21.67630058
180.508	17.74193548
180.723	56.91489362
180.938	984.90566038
181.153	292.35924933
181.368	252.64227642
181.583	255.88235294
181.798	240.12366884
182.013	235.42227004
182.228	242.67009586
182.443	239.69206159
182.658	240.84457062
182.873	236.32518797
183.088	237.55501917
183.303	236.90118783
183.518	239.63407246
183.733	242.05639225
183.948	246.93071421
184.162	252.87729625
184.377	249.82565262
184.592	247.3046532
184.807	242.94809011
185.022	244.51622947
185.237	246.63050747
185.452	244.81250448
185.667	245.62109347
185.882	247.96794918
186.096	244.41687345
186.311	247.42955474
186.526	248.51134557
186.741	249.60331902
186.956	248.97632058
187.17	247.54596786
187.385	246.73392365
187.6	245.69919699
187.815	247.61592301
188.03	246.43064844
188.244	245.80790468
188.459	244.2042652
188.674	239.31787563
188.889	240.99578541
189.103	241.93042486
189.318	246.59826821
189.533	245.5463528
189.747	245.78523198
189.962	247.55964106
190.177	246.25036263
190.391	245.03877655
190.606	244.92879977
190.821	242.8858723
191.035	243.17348479
191.25	239.78289984
191.465	244.35686134
191.679	247.95948113
191.894	250.02559415
192.109	250.18986417
192.323	247.62625171
192.538	248.70838117
192.752	248.79233957
192.967	249.25915373
193.181	248.58366036
193.396	246.84266103
193.611	246.96327684
193.825	241.53581267
194.04	242.81488615
194.254	240.51352277
194.469	240.29319085
194.683	241.53359031
194.898	241.71967987
195.112	241.88446134
195.327	243.28470653
195.541	241.73340573
195.756	241.50956146
195.97	238.22552796
196.184	236.08098337
196.399	236.14576494
196.613	234.4955683
196.828	234.7268564
197.042	235.3611166
197.257	236.01474557
197.471	237.07931899
197.685	237.16575783
197.9	238.31052945
198.114	237.97493404
198.328	240.56710273
198.543	239.67525121
198.757	243.83024733
198.971	243.3210084
199.186	242.94019379
199.4	243.33244076
199.614	243.90639794
199.829	241.76556874
200.043	239.76243602
200.257	241.34193377
200.471	241.86463172
200.686	239.03771131
200.9	238.12884429
201.114	239.70673729
201.328	238.50431448
201.543	238.10069378
201.757	236.90294715
201.971	234.01505646
202.185	235.17319419
202.399	234.80129563
202.614	234.2237684
202.828	232.03250031
203.042	231.09875336
203.256	227.96462307
203.47	229.75051471
203.684	228.46473529
203.899	228.14049087
204.113	230.70942663
204.327	230.58952364
204.541	229.31496831
204.755	228.11252269
204.969	228.9935421
205.183	229.60522302
205.397	229.21600777
205.611	227.74776962
205.825	227.91896646
206.039	226.62454874
206.253	226.45083933
206.467	226.02747945
206.681	225.58614885
206.895	224.34182909
207.109	222.32312441
207.323	223.40642224
207.537	224.5773888
207.751	225.3787652
207.965	223.67606807
208.179	221.62369915
208.393	220.18262702
208.607	215.88607595
208.821	215.72691778
209.035	219.30528888
209.249	217.24157756
209.463	216.35028961
209.677	216.03686636
209.891	217.06114398
210.104	215.24116496
210.318	216.34157669
210.532	217.14652057
210.746	217.1875
210.96	217.7238151
211.174	216.54864175
211.387	217.75213775
211.601	219.66561926
211.815	220.27146651
212.029	220.23584906
212.243	220.10885642
212.456	219.86653281
212.67	221.39922596
212.884	223.6638474
213.098	223.98435149
213.311	224.10348977
213.525	221.06983655
213.739	223.47012674
213.953	223.53259237
214.166	222.96353763
214.38	221.34438851
214.594	223.83616023
214.807	224.69915764
215.021	223.63811473
215.235	223.3902366
215.448	221.64263923
215.662	221.93362193
215.876	222.85559175
216.089	221.92734914
216.303	219.74419988
216.516	219.64232666
216.73	218.44259881
216.944	218.55152875
217.157	219.70522079
217.371	217.38260563
217.584	218.91827778
217.798	220.05240903
218.011	222.40101248
218.225	219.78758752
218.439	219.0603152
218.652	220.50652616
218.866	220.40706697
219.079	219.89028491
219.293	218.00458042
219.506	218.67190708
219.719	218.52568614
219.933	218.23207635
220.146	218.47983754
220.36	216.14125754
220.573	216.33949522
220.787	216.66474654
221	216.46732536
221.214	217.50993223
221.427	218.07919518
221.64	217.31115892
221.854	217.8477537
222.067	216.12735467
222.28	214.95402299
222.494	214.68703513
222.707	215.45454545
222.92	215.77185083
223.134	215.48864359
223.347	214.85480053
223.56	214.51155249
223.774	212.906189
223.987	212.48632149
224.2	211.61543342
224.414	212.54565482
224.627	210.33148533
224.84	209.91711753
225.053	209.58778275
225.267	209.58214081
225.48	208.17184747
225.693	206.16265365
225.906	204.11362499
226.119	203.09987246
226.333	201.04546692
226.546	199.74549196
226.759	199.98373014
226.972	197.24308088
227.185	196.66506076
227.398	194.98787815
227.612	195.15882632
227.825	194.87488221
228.038	193.85608664
228.251	193.84407765
228.464	191.85033316
228.677	191.37388302
228.89	190.55460147
229.103	190.74810082
229.316	189.41772406
229.529	188.56541564
229.743	187.67
229.956	186.36431523
230.169	184.5394252
230.382	183.61929902
230.595	183.27872059
230.808	184.20818725
231.021	184.38566131
231.234	181.32167153
231.447	181.53428377
231.66	180.98298859
231.872	180.51809966
232.085	180.24257593
232.298	178.81709599
232.511	178.76046901
232.724	179.38644997
232.937	179.61973526
233.15	180.44966736
233.363	180.63935383
233.576	180.86108145
233.789	182.09327337
234.002	181.51403321
234.214	181.52415997
234.427	181.79882916
234.64	183.18657261
234.853	184.06108211
235.066	182.7873993
235.279	181.97301694
235.491	180.72461012
235.704	182.67348218
235.917	182.89155461
236.13	182.26994751
236.342	181.6327517
236.555	180.43362789
236.768	180.82771896
236.981	180.07209805
237.193	177.94319852
237.406	178.00323902
237.619	176.42249527
237.832	176.27448191
238.044	176.11197954
238.257	175.79310671
238.47	176.49154475
238.682	175.1169715
238.895	174.86774986
239.108	174.19385388
239.32	174.63118448
239.533	174.83272797
239.746	173.63233824
239.958	175.68282362
240.171	174.7885584
240.383	174.70496232
240.596	175.89260211
240.808	177.23031515
241.021	176.5969501
241.234	177.19231681
241.446	178.39961896
241.659	178.51603638
241.871	177.9929911
242.084	177.77672703
242.296	175.92756389
242.509	175.02209816
242.721	175.1503655
242.934	174.55435485
243.146	175.45256725
243.359	175.59161281
243.571	176.66060691
243.784	175.90962031
243.996	174.88531579
244.208	176.9905722
244.421	176.76767677
244.633	174.80675769
244.846	174.47201812
245.058	173.76287712
245.27	172.48607179
245.483	172.27795337
245.695	172.81625115
245.907	172.56661604
246.12	172.64077224
246.332	171.95468721
246.544	172.42821043
246.757	173.35366699
246.969	174.84338476
247.181	174.2648436
247.394	175.30562347
247.606	175.8549027
247.818	176.21134992
248.03	174.55861747
248.243	174.26409137
248.455	175.62747381
248.667	174.00695249
248.879	173.05994851
249.092	174.42011807
249.304	174.12736725
249.516	173.36141455
249.728	173.1437306
249.94	173.63842488
250.153	172.66450226
250.365	172.51978228
250.577	172.74803581
250.789	173.9762584
251.001	174.25964977
251.213	174.66831366
251.425	174.17562398
251.637	173.29757988
251.85	172.06192506
252.062	170.97937915
252.274	170.66785396
252.486	169.96010638
252.698	168.88477312
252.91	167.94601249
253.122	168.61053651
253.334	168.49212633
253.546	168.12787388
253.758	168.5140421
253.97	168.11182081
254.182	168.64258155
254.394	168.19896482
254.606	168.11078922
254.818	166.88741722
255.03	167.02573048
255.242	166.59710447
255.454	165.56517973
255.666	164.25099996
255.877	163.92469905
256.089	163.94583974
256.301	163.60554308
256.513	163.52677438
256.725	163.15191312
256.937	165.16065964
257.149	164.7876024
257.361	165.71621965
257.572	164.82755709
257.784	164.70761712
257.996	164.5164014
258.208	164.66907442
258.42	165.21152874
258.631	163.71902895
258.843	164.11035286
259.055	162.9072993
259.267	163.63862103
259.479	164.61788482
259.69	163.85937241
259.902	164.38856384
260.114	165.33773065
260.325	165.46512602
260.537	165.65003985
260.749	165.16005175
260.961	165.59659802
261.172	165.02675571
261.384	163.87625487
261.596	164.62770348
261.807	163.52319725
262.019	163.98985975
262.23	164.08476583
262.442	164.60843373
262.654	163.22136787
262.865	162.74493992
263.077	163.04550427
263.288	162.02399583
263.5	162.43528515
263.712	161.51661801
263.923	161.31959091
264.135	161.25766265
264.346	161.00532229
264.558	161.29287495
264.769	159.80823947
264.981	159.37451618
265.192	160.41373927
265.404	160.65758755
265.615	160.54722319
265.827	160.33195988
266.038	160.1954498
266.25	160.93478177
266.461	160.01920861
266.673	159.05239561
266.884	158.3955719
267.095	158.35344698
267.307	158.80642115
267.518	159.45996979
267.73	160.07277413
267.941	160.18389419
268.152	160.93561974
268.364	160.71082632
268.575	161.66248924
268.786	162.04270009
268.998	161.86055183
269.209	163.45175753
269.42	163.7298091
269.632	163.44170404
269.843	163.62785123
270.054	164.38608356
270.265	165.09706733
270.477	166.39563335
270.688	166.95616056
270.899	167.95264571
271.11	168.08784551
271.322	168.8698151
271.533	169.52117165
271.744	169.98561369
271.955	170.03513279
272.166	170.05182904
272.378	171.17576032
272.589	171.34376891
272.8	171.3967114
273.011	172.01541892
273.222	171.47133663
273.433	171.59154457
273.644	171.41692
273.856	172.26117603
274.067	172.43449579
274.278	172.14773777
274.489	173.25206566
274.7	173.1932928
274.911	172.81621244
275.122	172.68675799
275.333	173.38742097
275.544	174.73645546
275.755	174.98896734
275.966	176.16670365
276.177	175.77212945
276.388	177.26398343
276.599	178.2307864
276.81	178.3833116
277.021	179.47193238
277.232	180.52455567
277.443	180.57713235
277.654	181.76190836
277.865	183.27440021
278.076	184.91160646
278.287	185.22845575
278.497	185.79323671
278.708	187.6335522
278.919	188.57566187
279.13	188.70450098
279.341	190.21473119
279.552	190.71855103
279.763	192.50458496
279.973	193.8205395
280.184	195.04374348
280.395	195.44982837
280.606	197.47292419
280.817	198.09262103
281.027	199.0595103
281.238	201.45021998
281.449	201.76274222
281.66	203.57274855
281.87	204.47502884
282.081	206.33384558
282.292	208.01583993
282.503	208.75654559
282.713	212.45324255
282.924	215.91190934
283.135	216.76728752
283.345	219.40433602
283.556	221.54146765
283.767	222.23330875
283.977	224.62997936
284.188	226.10639051
284.399	227.63169583
284.609	231.21924796
284.82	234.314758
285.03	236.78945185
285.241	238.54644961
285.451	238.29934484
285.662	238.5036158
285.873	240.05577504
286.083	239.56364647
286.294	241.63120236
286.504	241.87625872
286.715	241.8442046
286.925	241.30729971
287.136	240.11081106
287.346	238.66019866
287.557	238.75961806
287.767	236.3644752
287.978	236.61459053
288.188	237.25862468
288.399	235.83383007
288.609	233.63210337
288.819	233.47756775
289.03	230.8374606
289.24	229.35158178
289.451	225.86528222
289.661	223.62380307
289.871	223.98418625
290.082	221.95599235
290.292	220.2892902
290.502	218.68986254
290.713	215.38916589
290.923	213.72951678
291.133	209.72786603
291.344	207.51313271
291.554	204.86477772
291.764	202.1593033
291.974	198.9272479
292.185	196.19413006
292.395	194.4283867
292.605	189.26820276
292.815	185.60973842
293.026	183.12702886
293.236	179.09195362
293.446	175.74232169
293.656	171.09421292
293.866	167.38858408
294.077	162.96921394
294.287	158.01250113
294.497	153.17708181
294.707	148.30606001
294.917	142.9766789
295.127	138.32937925
295.337	133.4667634
295.548	129.01871864
295.758	123.93489487
295.968	119.24512467
296.178	114.7367755
296.388	110.13114688
296.598	105.76454097
296.808	101.70767906
297.018	97.81592634
297.228	94.29745137
297.438	90.47732887
297.648	86.98300348
297.858	83.36997715
298.068	80.1261611
298.278	77.10923124
298.488	74.46046793
298.698	72.00550047
298.908	69.52227281
299.118	67.19903886
299.328	65.1573722
299.538	63.15587743
299.748	61.23002132
299.957	59.27507494
300.167	57.69547398
300.377	56.01373988
300.587	54.26034877
300.797	52.68033018
301.007	51.1960537
301.217	49.66962731
301.426	48.32385265
301.636	46.98791987
301.846	45.80894576
302.056	44.7317638
302.266	43.62991254
302.475	42.64078329
302.685	41.67834074
302.895	40.65144558
303.105	39.71294289
303.314	38.80167911
303.524	37.94203594
303.734	37.19626931
303.944	36.38815196
304.153	35.60488459
304.363	34.90877548
304.573	34.24387118
304.782	33.55196404
304.992	32.99767708
305.202	32.47642577
305.411	31.96790335
305.621	31.44707141
305.831	30.9748778
306.04	30.52262391
306.25	30.09982954
306.459	29.60742714
306.669	29.21541124
306.878	28.83504731
307.088	28.45722487
307.298	28.08958292
307.507	27.72773965
307.717	27.42713303
307.926	27.06430587
308.136	26.71732358
308.345	26.47089351
308.555	26.25455009
308.764	26.02010535
308.974	25.75379922
309.183	25.52188373
309.392	25.24607983
309.602	24.97922338
309.811	24.74037328
310.021	24.49968676
310.23	24.30746703
310.44	24.0742994
310.649	23.90498889
310.858	23.72568822
311.068	23.57111004
311.277	23.39828188
311.486	23.24962802
311.696	23.08733191
311.905	22.94595607
312.114	22.79624579
312.324	22.70522238
312.533	22.53675457
312.742	22.40100842
312.952	22.22314794
313.161	22.08632264
313.37	21.96769466
313.579	21.88799774
313.789	21.81798329
313.998	21.72942199
314.207	21.6255267
314.416	21.55017628
314.625	21.44846636
314.835	21.40275607
315.044	21.30017903
315.253	21.22362407
315.462	21.13448659
315.671	21.05867758
315.88	20.97277805
316.09	20.91052896
316.299	20.82850548
316.508	20.74796116
316.717	20.68700793
316.926	20.63064722
317.135	20.5591199
317.344	20.52238436
317.553	20.49999815
317.762	20.46080197
317.971	20.42002369
318.18	20.39611641
318.389	20.37923259
318.598	20.36319317
318.807	20.33721222
319.016	20.28059616
319.225	20.20753349
319.434	20.16357837
319.643	20.08217515
319.852	19.99162552
320.061	19.90855284
320.27	19.80464338
320.479	19.70420436
320.688	19.62007296
320.897	19.52702467
321.105	19.44092365
321.314	19.38158364
321.523	19.32654683
321.732	19.25876469
321.941	19.18217975
322.15	19.12222251
322.359	19.05162717
322.567	18.9889163
322.776	18.93788604
322.985	18.8899324
323.194	18.84460797
323.403	18.80394843
323.611	18.77493232
323.82	18.74364538
324.029	18.72779452
324.237	18.72461916
324.446	18.727691
324.655	18.72828358
324.864	18.74129782
325.072	18.73493889
325.281	18.75089865
325.49	18.74624888
325.698	18.76073186
325.907	18.7454183
326.116	18.74196572
326.324	18.73885486
326.533	18.76616349
326.741	18.78401923
326.95	18.78318727
327.159	18.77370604
327.367	18.77175229
327.576	18.76256916
327.784	18.76323784
327.993	18.77016086
328.201	18.77177783
328.41	18.77832128
328.618	18.78964655
328.827	18.79255523
329.035	18.80009596
329.244	18.81981294
329.452	18.84140544
329.661	18.85103436
329.869	18.84993636
330.078	18.85360141
330.286	18.88765264
330.495	18.89568804
330.703	18.90456807
330.911	18.88892504
331.12	18.88449987
331.328	18.89129209
331.537	18.91460356
331.745	18.92147381
331.953	18.95476265
332.162	18.98117178
332.37	18.98226199
332.578	18.99949833
332.787	19.01554853
332.995	19.01900149
333.203	19.01097815
333.411	19.02834608
333.62	19.01999173
333.828	19.02357461
334.036	19.04002952
334.244	19.06311487
334.453	19.06451575
334.661	19.07537208
334.869	19.1091211
335.077	19.13334949
335.285	19.14549168
335.494	19.16020786
335.702	19.19486678
335.91	19.1838134
336.118	19.19519014
336.326	19.19509307
336.534	19.21214534
336.742	19.21569917
336.951	19.22624126
337.159	19.22364658
337.367	19.22748584
337.575	19.26507664
337.783	19.2765585
337.991	19.28607321
338.199	19.29114582
338.407	19.29822446
338.615	19.29597639
338.823	19.3185215
339.031	19.30945739
339.239	19.29988493
339.447	19.30594874
339.655	19.32279977
339.863	19.32170837
340.071	19.3124518
340.279	19.33003736
340.487	19.3422802
340.695	19.35815816
340.903	19.36687819
341.11	19.4037017
341.318	19.39773013
341.526	19.41763779
341.734	19.42866994
341.942	19.43403042
342.15	19.43825299
342.358	19.45497361
342.565	19.4676804
342.773	19.47596309
342.981	19.50106136
343.189	19.49168349
343.397	19.50116367
343.604	19.51149042
343.812	19.50907569
344.02	19.50526874
344.228	19.5326208
344.435	19.53445263
344.643	19.53949183
344.851	19.52976959
345.058	19.53365528
345.266	19.53269158
345.474	19.51900228
345.681	19.51838147
345.889	19.52504717
346.097	19.54495684
346.304	19.53329913
346.512	19.53358774
346.72	19.53321924
346.927	19.54972768
347.135	19.55492174
347.342	19.54432597
347.55	19.56053121
347.758	19.56111687
347.965	19.56684834
348.173	19.57559638
348.38	19.57749805
348.588	19.58403381
348.795	19.60087124
349.003	19.61951394
349.21	19.62809403
349.418	19.63685826
349.625	19.65334334
349.833	19.67713726
350.04	19.70245591
350.247	19.7067706
350.455	19.70388302
350.662	19.73041291
350.87	19.7464128
351.077	19.77613406
351.284	19.7661294
351.492	19.77333619
351.699	19.78823252
351.906	19.79690272
352.114	19.8148267
352.321	19.82038512
352.528	19.83143298
352.736	19.8439076
352.943	19.83792287
353.15	19.83628265
353.358	19.8260423
353.565	19.84351683
353.772	19.84259155
353.979	19.83119349
354.187	19.82013833
354.394	19.82326178
354.601	19.81742198
354.808	19.82527489
355.015	19.80133124
355.223	19.80641744
355.43	19.77769044
355.637	19.78828712
355.844	19.7965281
356.051	19.79539128
356.258	19.78398909
356.465	19.76860736
356.673	19.76561181
356.88	19.76036154
357.087	19.74309534
357.294	19.72953756
357.501	19.71306231
357.708	19.70818084
357.915	19.68597014
358.122	19.6746724
358.329	19.65854972
358.536	19.64708043
358.743	19.62738489
358.95	19.62006285
359.157	19.6016909
359.364	19.60146806
359.571	19.58925909
359.778	19.57788788
359.985	19.56130039
360.192	19.54486575
360.399	19.53820604
360.606	19.53424602
360.812	19.52798983
361.019	19.52825322
361.226	19.51174345
361.433	19.51280486
361.64	19.50319117
361.847	19.51677765
362.054	19.50436242
362.26	19.50533567
362.467	19.49737694
362.674	19.49646732
362.881	19.50666553
363.088	19.5046986
363.294	19.51725514
363.501	19.52052322
363.708	19.51191801
363.915	19.51073368
364.121	19.5174583
364.328	19.52514386
364.535	19.52641952
364.741	19.51797785
364.948	19.51163722
365.155	19.52703502
365.361	19.53550159
365.568	19.54639912
365.775	19.5628723
365.981	19.57916892
366.188	19.57335203
366.395	19.59095325
366.601	19.59558306
366.808	19.61624496
367.014	19.61863757
367.221	19.61341481
367.427	19.61800755
367.634	19.61946738
367.84	19.6144097
368.047	19.62519783
368.254	19.63440599
368.46	19.6365195
368.667	19.63468153
368.873	19.64383191
369.079	19.65446543
369.286	19.66931336
369.492	19.67600032
369.699	19.68034769
369.905	19.68167816
370.112	19.68121836
370.318	19.68940344
370.524	19.69381857
370.731	19.69652288
370.937	19.71357075
371.144	19.6995824
371.35	19.71642772
371.556	19.73407358
371.763	19.73721454
371.969	19.75459001
372.175	19.7743455
372.381	19.77640641
372.588	19.77017904
372.794	19.79176673
373	19.7951161
373.206	19.79567568
373.413	19.79948707
373.619	19.81249312
373.825	19.81662959
374.031	19.81927542
374.238	19.82938808
374.444	19.82982803
374.65	19.83202085
374.856	19.84718515
375.062	19.86488681
375.268	19.87845999
375.475	19.90190503
375.681	19.91398348
375.887	19.91702491
376.093	19.94395494
376.299	19.92917942
376.505	19.94733705
376.711	19.98326634
376.917	20.00959903
377.123	20.02556736
377.329	20.06138643
377.535	20.08724396
377.741	20.11407095
377.947	20.12842912
378.153	20.14669087
378.359	20.16186261
378.565	20.1847921
378.771	20.21592805
378.977	20.23328349
379.183	20.25295891
379.389	20.27205025
379.595	20.28708944
379.801	20.3017755
380.007	20.33024835
380.213	20.34900464
380.418	20.35505341
380.624	20.38635317
380.83	20.40955849
381.036	20.41132111
381.242	20.4296199
381.448	20.45019953
381.653	20.45821028
381.859	20.47876143
382.065	20.48666535
382.271	20.48896788
382.476	20.50117804
382.682	20.51784682
382.888	20.53398327
383.094	20.54170359
383.299	20.55852634
383.505	20.56152707
383.711	20.58453405
383.916	20.58948389
384.122	20.60452342
384.328	20.61476613
384.533	20.63998558
384.739	20.65176278
384.945	20.66861589
385.15	20.67965155
385.356	20.69329603
385.562	20.71210389
385.767	20.71346525
385.973	20.72795914
386.178	20.72580698
386.384	20.74665364
386.589	20.77578861
386.795	20.78197888
387	20.79821371
387.206	20.8231905
387.411	20.83504434
387.617	20.86046186
387.822	20.88293735
388.028	20.88234214
388.233	20.9164308
388.439	20.93870731
388.644	20.9532298
388.85	20.95218467
389.055	20.97708632
389.26	20.97376407
389.466	20.98962105
389.671	21.00510896
389.877	21.01722707
390.082	21.03332185
390.287	21.04535834
390.493	21.05797253
390.698	21.05889186
390.903	21.07230916
391.109	21.10055887
391.314	21.10677006
391.519	21.10855969
391.724	21.11821606
391.93	21.13545378
392.135	21.1451099
392.34	21.16934115
392.545	21.1631423
392.751	21.17298897
392.956	21.16154565
393.161	21.17375505
393.366	21.17522581
393.571	21.19922431
393.776	21.19992268
393.982	21.21284342
394.187	21.22322752
394.392	21.22791047
394.597	21.2408079
394.802	21.25838507
395.007	21.26404112
395.212	21.26592345
395.417	21.27144926
395.622	21.2829513
395.827	21.27831845
396.032	21.30251121
396.237	21.29966887
396.442	21.30906785
396.647	21.30968718
396.852	21.32339526
397.057	21.32763155
397.262	21.35194077
397.467	21.36433797
397.672	21.37406359
397.877	21.38087633
398.082	21.37988242
398.287	21.38600538
398.492	21.39152472
398.697	21.40904895
398.902	21.43376356
399.107	21.44223232
399.311	21.46300264
399.516	21.48686672
399.721	21.50348345
399.926	21.52512507
400.131	21.55522902
400.336	21.55806957
400.54	21.58090324
400.745	21.60396848
400.95	21.62463627
401.155	21.63635732
401.359	21.66118829
401.564	21.68430201
401.769	21.70178403
401.974	21.72849593
402.178	21.75069807
402.383	21.78772098
402.588	21.8061055
402.792	21.82898653
402.997	21.84257152
403.202	21.85443197
403.406	21.86779615
403.611	21.89328337
403.815	21.91126623
404.02	21.9234032
404.225	21.94099489
404.429	21.96071206
404.634	21.98826864
404.838	22.0069172
405.043	22.02490422
405.247	22.03262793
405.452	22.05625053
405.656	22.06855789
405.861	22.07853046
406.065	22.09871581
406.27	22.11682673
406.474	22.14179055
406.679	22.15235211
406.883	22.18318815
407.088	22.19807594
407.292	22.22224959
407.497	22.24107985
407.701	22.27156764
407.905	22.28493613
408.11	22.296565
408.314	22.31294439
408.518	22.32553931
408.723	22.34074211
408.927	22.35501411
409.131	22.37529769
409.336	22.3966956
409.54	22.4275601
409.744	22.44919969
409.949	22.46371468
410.153	22.48411709
410.357	22.49844216
410.561	22.52201682
410.766	22.54362162
410.97	22.56649745
411.174	22.58201397
411.378	22.6134591
411.582	22.63829112
411.787	22.65469396
411.991	22.6756533
412.195	22.6943187
412.399	22.72429434
412.603	22.74770519
412.807	22.77160989
413.011	22.79444165
413.215	22.82132443
413.419	22.83268991
413.624	22.84898179
413.828	22.87167467
414.032	22.88642717
414.236	22.90606432
414.44	22.93560623
414.644	22.96384288
414.848	22.97701375
415.052	22.98675218
415.256	23.01596792
415.46	23.03576189
415.664	23.05367806
415.868	23.07338149
416.072	23.09698514
416.275	23.11039402
416.479	23.14619245
416.683	23.15286102
416.887	23.18117055
417.091	23.20164333
417.295	23.22309294
417.499	23.2335818
417.703	23.26532845
417.906	23.27389012
418.11	23.28942954
418.314	23.3076992
418.518	23.33728817
418.722	23.3612023
418.925	23.37913599
419.129	23.40460002
419.333	23.43180295
419.537	23.44615672
419.74	23.46441869
419.944	23.47770263
420.148	23.49230108
420.352	23.51448227
420.555	23.53177306
420.759	23.54188465
420.963	23.57307502
421.166	23.58106053
421.37	23.60173764
421.573	23.61587457
421.777	23.64155678
421.981	23.65667755
422.184	23.68531318
422.388	23.70571401
422.591	23.7311166
422.795	23.7642558
422.999	23.7800585
423.202	23.80162609
423.406	23.8309003
423.609	23.85087262
423.813	23.86841693
424.016	23.886711
424.22	23.90863476
424.423	23.92015139
424.627	23.93961838
424.83	23.96589399
425.033	23.98615804
425.237	23.99901462
425.44	24.02874118
425.644	24.03909934
425.847	24.05489558
426.05	24.06312144
426.254	24.07248737
426.457	24.09647435
426.66	24.11658555
426.864	24.14052122
427.067	24.14511994
427.27	24.15504681
427.474	24.16305888
427.677	24.17247335
427.88	24.18629919
428.084	24.20163074
428.287	24.21291674
428.49	24.23002559
428.693	24.25378902
428.896	24.26643551
429.1	24.28438111
429.303	24.30376377
429.506	24.32478201
429.709	24.33585064
429.912	24.36293986
430.116	24.38040523
430.319	24.41121471
430.522	24.43319335
430.725	24.44573009
430.928	24.45690944
431.131	24.46126474
431.334	24.47157013
431.537	24.48844339
431.74	24.519857
431.943	24.53340472
432.146	24.55756856
432.349	24.5721837
432.552	24.59342274
432.755	24.61559055
432.958	24.6441724
433.161	24.65784459
433.364	24.67339013
433.567	24.68244794
433.77	24.68342204
433.973	24.69605742
434.176	24.69827926
434.379	24.73264636
434.582	24.73948981
434.785	24.75142225
434.988	24.77166258
435.19	24.79573311
435.393	24.81237058
435.596	24.82673923
435.799	24.84857109
436.002	24.85081938
436.205	24.86893301
436.407	24.87191126
436.61	24.89263872
436.813	24.90715578
437.016	24.91554475
437.218	24.91546151
437.421	24.92409931
437.624	24.93857021
437.827	24.96316803
438.029	24.99087541
438.232	25.00903102
438.435	25.02512453
438.637	25.02583786
438.84	25.04581284
439.043	25.06798194
439.245	25.07938177
439.448	25.09194498
439.65	25.10358876
439.853	25.12362069
440.056	25.13009574
440.258	25.149973
440.461	25.16933486
440.663	25.18246113
440.866	25.191672
441.068	25.20438737
441.271	25.22402282
441.473	25.24030678
441.676	25.2696039
441.878	25.29325303
442.081	25.29975977
442.283	25.30772482
442.486	25.32960449
442.688	25.34944974
442.89	25.3651869
443.093	25.37239908
443.295	25.37878848
443.498	25.39887868
443.7	25.40849949
443.902	25.43017843
444.105	25.43876519
444.307	25.45570472
444.509	25.48058599
444.712	25.4929284
444.914	25.52451444
445.116	25.54050383
445.319	25.54889069
445.521	25.5630503
445.723	25.58476517
445.925	25.60770139
446.128	25.61645331
446.33	25.63058038
446.532	25.65159737
446.734	25.66248173
446.936	25.68391511
447.139	25.70108948
447.341	25.71937873
447.543	25.75223681
447.745	25.76637296
447.947	25.77717211
448.149	25.79262372
448.351	25.81075778
448.553	25.82356704
448.755	25.82709329
448.958	25.82602966
449.16	25.8267581
449.362	25.83732553
449.564	25.8546726
449.766	25.86515017
449.968	25.87686744
450.17	25.87319356
450.372	25.88644972
450.574	25.90102448
450.776	25.91779591
450.978	25.92920024
451.179	25.9390761
451.381	25.95306484
451.583	25.97178274
451.785	25.96849366
451.987	25.97606064
452.189	25.98980946
452.391	25.99708233
452.593	26.01230936
452.795	26.02955213
452.996	26.04805942
453.198	26.06955298
453.4	26.0899737
453.602	26.09309992
453.804	26.11415574
454.005	26.12130086
454.207	26.1356116
454.409	26.13996215
454.611	26.15131132
454.812	26.16489523
455.014	26.16979941
455.216	26.18321753
455.417	26.18126459
455.619	26.18106649
455.821	26.17283362
456.022	26.19112998
456.224	26.20284335
456.426	26.22388102
456.627	26.25063518
456.829	26.25718211
457.031	26.26422583
457.232	26.26404769
457.434	26.2720279
457.635	26.26824384
457.837	26.29095535
458.038	26.29913311
458.24	26.31656576
458.441	26.32796922
458.643	26.33424376
458.844	26.33831535
459.046	26.34641773
459.247	26.36089141
459.449	26.36856075
459.65	26.38403665
459.852	26.40313486
460.053	26.42873769
460.254	26.43110275
460.456	26.44315564
460.657	26.44797747
460.859	26.44146433
461.06	26.45574761
461.261	26.47253906
461.463	26.47867546
461.664	26.49659693
461.865	26.52649466
462.066	26.53370064
462.268	26.5400033
462.469	26.55470587
462.67	26.55733264
462.872	26.57648933
463.073	26.58503744
463.274	26.59391616
463.475	26.59150161
463.676	26.5960565
463.878	26.60431761
464.079	26.61784844
464.28	26.62342448
464.481	26.63172626
464.682	26.63792891
464.883	26.64361524
465.085	26.65516572
465.286	26.65543619
465.487	26.65936929
465.688	26.6828032
465.889	26.68816115
466.09	26.68904525
466.291	26.70029208
466.492	26.71496509
466.693	26.71159213
466.894	26.72701958
467.095	26.74548859
467.296	26.75164627
467.497	26.75285535
467.698	26.76094267
467.899	26.77917157
468.1	26.78902115
468.301	26.80334598
468.502	26.81048226
468.703	26.82275978
468.903	26.83020898
469.104	26.84271111
469.305	26.84959609
469.506	26.87253361
469.707	26.86966442
469.908	26.87431193
470.109	26.87750534
470.309	26.88107141
470.51	26.8917624
470.711	26.89283938
470.912	26.90379045
471.112	26.91327523
471.313	26.91594273
471.514	26.93297935
471.715	26.95096015
471.915	26.97037766
472.116	26.98013818
472.317	26.99532196
472.517	26.99572329
472.718	27.0101177
472.919	27.02266188
473.119	27.03924223
473.32	27.05307194
473.521	27.06937188
473.721	27.08234134
473.922	27.1100537
474.122	27.12438101
474.323	27.14365154
474.523	27.16971738
474.724	27.17965434
474.925	27.18988775
475.125	27.20059123
475.326	27.21094942
475.526	27.22301944
475.727	27.23397974
475.927	27.24627248
476.127	27.26336491
476.328	27.27255836
476.528	27.28647975
476.729	27.30673827
476.929	27.32629389
477.13	27.34730199
477.33	27.3599632
477.53	27.36917666
477.731	27.38229638
477.931	27.39663083
478.131	27.4071152
478.332	27.41376018
478.532	27.42132307
478.732	27.42067103
478.933	27.43904139
479.133	27.45949434
479.333	27.48040692
479.533	27.49125367
479.734	27.49751655
479.934	27.5140975
480.134	27.53071105
480.334	27.54042642
480.534	27.54892222
480.735	27.55731213
480.935	27.56240665
481.135	27.56836706
481.335	27.57518276
481.535	27.58435982
481.735	27.59731257
481.935	27.61575187
482.136	27.61889014
482.336	27.61741414
482.536	27.64410055
482.736	27.65865845
482.936	27.67333649
483.136	27.67553106
483.336	27.69032182
483.536	27.69717674
483.736	27.71255263
483.936	27.73083634
484.136	27.72848703
484.336	27.7385376
484.536	27.75146613
484.736	27.76693233
484.936	27.7708584
485.135	27.78184356
485.335	27.79868637
485.535	27.80873605
485.735	27.81432336
485.935	27.82930332
486.135	27.83587359
486.335	27.84860779
486.534	27.87295419
486.734	27.87144501
486.934	27.88561129
487.134	27.90009794
487.334	27.91295889
487.533	27.92511591
487.733	27.9444282
487.933	27.95592203
488.133	27.96968981
488.332	27.99266296
488.532	28.00445375
488.732	28.01867867
488.931	28.03565947
489.131	28.05548494
489.331	28.07143792
489.53	28.08016179
489.73	28.08941199
489.93	28.10336179
490.129	28.11775331
490.329	28.13437117
490.528	28.1456437
490.728	28.15653964
490.928	28.16828431
491.127	28.18517509
491.327	28.20327813
491.526	28.21963285
491.726	28.22351563
491.925	28.22267097
492.125	28.23093341
492.324	28.24466155
492.524	28.2527851
492.723	28.26660616
492.922	28.27380345
493.122	28.28300599
493.321	28.29305242
493.521	28.3000677
493.72	28.30774272
493.919	28.32044357
494.119	28.32532328
494.318	28.32565428
494.517	28.3241568
494.717	28.32544612
494.916	28.33032566
495.115	28.33454646
495.315	28.3281883
495.514	28.32830328
495.713	28.33438488
495.912	28.34809912
496.112	28.36210757
496.311	28.37046622
496.51	28.37630801
496.709	28.38671132
496.908	28.38906809
497.108	28.39521494
497.307	28.402244
497.506	28.40929496
497.705	28.41955722
497.904	28.4333378
498.103	28.43748379
498.302	28.45282365
498.501	28.46836382
498.701	28.47578651
498.9	28.49468518
499.099	28.50577949
499.298	28.51902506
499.497	28.53587912
499.696	28.5386166
499.895	28.55236537
500.094	28.55709917
500.293	28.56442393
500.492	28.5740367
500.691	28.57967982
500.89	28.58714548
501.088	28.59810131
501.287	28.60470915
501.486	28.61463607
501.685	28.63282838
501.884	28.64996677
502.083	28.65661036
502.282	28.67210889
502.481	28.69315408
502.679	28.70283623
502.878	28.72178929
503.077	28.7291267
503.276	28.74001191
503.475	28.75552504
503.673	28.76640558
503.872	28.78462682
504.071	28.7984448
504.27	28.81345351
504.468	28.82657064
504.667	28.84191053
504.866	28.85658858
505.064	28.87823695
505.263	28.89474324
505.462	28.91186475
505.66	28.92525218
505.859	28.93243855
506.058	28.93493961
506.256	28.95606633
506.455	28.96428714
506.653	28.97291427
506.852	28.98820067
507.05	29.00243079
507.249	29.01962814
507.448	29.0292044
507.646	29.04592133
507.845	29.06342769
508.043	29.08030293
508.242	29.09237831
508.44	29.11123263
508.638	29.12888627
508.837	29.13345172
509.035	29.14472988
509.234	29.15935057
509.432	29.17732605
509.631	29.19968588
509.829	29.20314946
510.027	29.22511965
510.226	29.24588843
510.424	29.250011
510.622	29.27271677
510.821	29.28262678
511.019	29.2943182
511.217	29.31309398
511.415	29.32895105
511.614	29.35272089
511.812	29.35717143
512.01	29.36717989
512.208	29.37906972
512.407	29.39471399
512.605	29.40475004
512.803	29.42861935
513.001	29.45399284
513.199	29.47661997
513.398	29.48714064
513.596	29.5000316
513.794	29.5143011
513.992	29.55260889
514.19	29.56201452
514.388	29.58246348
514.586	29.59754851
514.784	29.61521096
514.982	29.63555657
515.18	29.65283895
515.378	29.66995723
515.576	29.69696659
515.774	29.71753638
515.972	29.74522285
516.17	29.7636731
516.368	29.78742002
516.566	29.79890049
516.764	29.81997572
516.962	29.83243522
517.16	29.86056544
517.358	29.87866397
517.556	29.90323504
517.754	29.92073923
517.952	29.93781707
518.149	29.95119807
518.347	29.97134819
518.545	29.98178255
518.743	30.00339148
518.941	30.01873333
519.138	30.04244153
519.336	30.0624946
519.534	30.0827608
519.732	30.09120675
519.929	30.11393806
520.127	30.13197701
520.325	30.15146938
520.523	30.16433025
520.72	30.18223753
520.918	30.20337511
521.116	30.21962518
521.313	30.2251303
521.511	30.24403057
521.709	30.25927027
521.906	30.27389676
522.104	30.28825087
522.301	30.29872949
522.499	30.3234909
522.696	30.34700965
522.894	30.37053474
523.092	30.39500395
523.289	30.40942053
523.487	30.42504213
523.684	30.43554186
523.882	30.45426265
524.079	30.46181374
524.276	30.47287813
524.474	30.49293521
524.671	30.51553574
524.869	30.54127167
525.066	30.55395561
525.264	30.56858241
525.461	30.58933322
525.658	30.60612179
525.856	30.62032708
526.053	30.63929441
526.25	30.6574889
526.448	30.6809177
526.645	30.68938736
526.842	30.7071097
527.039	30.720689
527.237	30.73384724
527.434	30.74634327
527.631	30.76746144
527.828	30.78309552
528.026	30.80243625
528.223	30.82815787
528.42	30.85150123
528.617	30.87006117
528.814	30.8793611
529.012	30.90034902
529.209	30.91916453
529.406	30.9453187
529.603	30.96248184
529.8	30.98236242
529.997	30.99690341
530.194	31.01679992
530.391	31.03348861
530.588	31.04517953
530.785	31.06636311
530.982	31.08859962
531.179	31.10361
531.376	31.11844999
531.573	31.14320829
531.77	31.15787146
531.967	31.17683955
532.164	31.18811053
532.361	31.19748899
532.558	31.21498477
532.755	31.23156537
532.952	31.25689744
533.149	31.26189002
533.346	31.2799097
533.543	31.29344198
533.739	31.31190438
533.936	31.31853963
534.133	31.34018217
534.33	31.35195777
534.527	31.373695
534.723	31.39016913
534.92	31.40885596
535.117	31.42337102
535.314	31.44291765
535.51	31.46242941
535.707	31.4787114
535.904	31.49939703
536.1	31.52186524
536.297	31.54370481
536.494	31.55666093
536.69	31.57125836
536.887	31.59110497
537.084	31.60906515
537.28	31.62977687
537.477	31.64893978
537.674	31.66193594
537.87	31.67831465
538.067	31.69729194
538.263	31.7033206
538.46	31.71770353
538.656	31.72708903
538.853	31.73950983
539.049	31.75363234
539.246	31.7615409
539.442	31.77353427
539.639	31.77806811
539.835	31.79024235
540.032	31.79389942
540.228	31.80749283
540.424	31.82530658
540.621	31.84279564
540.817	31.86458627
541.014	31.87914887
541.21	31.88910985
541.406	31.90833432
541.603	31.92290206
541.799	31.94135986
541.995	31.95515464
542.191	31.97661338
542.388	31.99566966
542.584	32.01667022
542.78	32.04184176
542.976	32.06581425
543.173	32.08259038
543.369	32.08953324
543.565	32.11045092
543.761	32.12878636
543.957	32.13572172
544.154	32.15941764
544.35	32.1743807
544.546	32.1886293
544.742	32.21593187
544.938	32.22183828
545.134	32.22972065
545.33	32.24213298
545.526	32.25657683
545.722	32.26701536
545.919	32.27421349
546.115	32.27201403
546.311	32.27962616
546.507	32.29722689
546.703	32.31000289
546.899	32.32218385
547.095	32.32947964
547.29	32.34913345
547.486	32.37695083
547.682	32.39064252
547.878	32.40809119
548.074	32.43675212
548.27	32.45885881
548.466	32.47388392
548.662	32.48157435
548.858	32.48908307
549.053	32.50580099
549.249	32.52755803
549.445	32.5403772
549.641	32.54447344
549.837	32.56053283
550.032	32.57862415
550.228	32.60690931
550.424	32.62880969
550.62	32.64777589
550.815	32.66101578
551.011	32.67125492
551.207	32.68627741
551.402	32.69782089
551.598	32.70342713
551.794	32.71843724
551.989	32.73885661
552.185	32.74206584
552.381	32.74753148
552.576	32.75302967
552.772	32.76882621
552.967	32.77893585
553.163	32.79331419
553.359	32.81158116
553.554	32.8214051
553.75	32.84158428
553.945	32.85645063
554.141	32.88121312
554.336	32.90356023
554.532	32.9099999
554.727	32.92133451
554.922	32.93289575
555.118	32.93955496
555.313	32.95528417
555.509	32.96083607
555.704	32.97420513
555.899	32.9887804
556.095	32.99906481
556.29	33.01283508
556.486	33.02676168
556.681	33.04406958
556.876	33.05964993
557.071	33.0710354
557.267	33.08050454
557.462	33.07230028
557.657	33.08063628
557.853	33.08596228
558.048	33.09134501
558.243	33.09257026
558.438	33.09647843
558.633	33.11119035
558.829	33.12573428
559.024	33.12913488
559.219	33.14254649
559.414	33.1529214
559.609	33.14960424
559.804	33.16210379
559.999	33.1661848
560.194	33.17272055
560.39	33.17919425
560.585	33.18101401
560.78	33.19528228
560.975	33.19974655
561.17	33.20600399
561.365	33.21888015
561.56	33.23435838
561.755	33.25300844
561.95	33.26804816
562.145	33.28187963
562.34	33.28507548
562.535	33.28573252
562.729	33.2922485
562.924	33.28641129
563.119	33.3004181
563.314	33.30311596
563.509	33.30583623
563.704	33.32713948
563.899	33.32964982
564.093	33.3346834
564.288	33.33867625
564.483	33.35138218
564.678	33.36487014
564.873	33.36494136
565.067	33.38064576
565.262	33.3849543
565.457	33.38360164
565.652	33.39400669
565.846	33.39117231
566.041	33.39899177
566.236	33.3936729
566.43	33.40898513
566.625	33.41683901
566.82	33.41464277
567.014	33.42725496
567.209	33.43816486
567.404	33.44700841
567.598	33.46492368
567.793	33.47222622
567.987	33.49987983
568.182	33.51013575
568.376	33.51463552
568.571	33.50854619
568.765	33.51732738
568.96	33.53235616
569.154	33.53864072
569.349	33.55403196
569.543	33.56761842
569.738	33.57704694
569.932	33.60008736
570.127	33.60602454
570.321	33.62401186
570.515	33.63006683
570.71	33.63737698
570.904	33.65665808
571.098	33.6769049
571.293	33.68415509
571.487	33.70170278
571.681	33.70399289
571.876	33.7192896
572.07	33.71439138
572.264	33.72409861
572.458	33.74255628
572.653	33.75313604
572.847	33.77205037
573.041	33.7821996
573.235	33.78660587
573.43	33.79162814
573.624	33.80248989
573.818	33.81642431
574.012	33.82979879
574.206	33.84458037
574.4	33.84717907
574.594	33.8603657
574.788	33.88855665
574.983	33.89927702
575.177	33.89517279
575.371	33.91261683
575.565	33.9274863
575.759	33.94155688
575.953	33.95490368
576.147	33.97555497
576.341	33.99713931
576.535	34.01482669
576.729	34.04165553
576.923	34.03448615
577.117	34.04554664
577.31	34.06266055
577.504	34.0772133
577.698	34.08964298
577.892	34.09427175
578.086	34.09695498
578.28	34.1053762
578.474	34.12771696
578.668	34.13781859
578.861	34.14630106
579.055	34.16066626
579.249	34.16812976
579.443	34.16550198
579.636	34.16725431
579.83	34.16933482
580.024	34.1755126
580.218	34.18422934
580.411	34.16579198
580.605	34.15987546
580.799	34.16742036
580.992	34.19362112
581.186	34.19033759
581.38	34.18799715
581.573	34.21060341
581.767	34.20642739
581.961	34.21516229
582.154	34.21505112
582.348	34.20921075
582.541	34.21217463
582.735	34.21547741
582.928	34.20796191
583.122	34.21132131
583.315	34.21539089
583.509	34.22014038
583.702	34.21648788
583.896	34.2240016
584.089	34.21746468
584.283	34.20838976
584.476	34.22078831
584.67	34.21908847
584.863	34.22428682
585.056	34.22053601
585.25	34.22691371
585.443	34.2298679
585.636	34.2037937
585.83	34.21927671
586.023	34.21408745
586.216	34.21785148
586.41	34.22965039
586.603	34.23008033
586.796	34.22746507
586.989	34.22407428
587.183	34.21243496
587.376	34.22257511
587.569	34.23654182
587.762	34.25015202
587.955	34.25126105
588.149	34.25547374
588.342	34.25864256
588.535	34.27631938
588.728	34.29539484
588.921	34.29437639
589.114	34.29665052
589.307	34.29734442
589.5	34.31003104
589.693	34.32256052
589.886	34.33602786
590.08	34.34601314
590.273	34.35496731
590.466	34.36697393
590.659	34.37577238
590.852	34.38724636
591.044	34.41310873
591.237	34.43212315
591.43	34.44411247
591.623	34.45707323
591.816	34.4724884
592.009	34.49055605
592.202	34.5129931
592.395	34.52802951
592.588	34.53121141
592.781	34.54352422
592.973	34.55642181
593.166	34.57252593
593.359	34.59026079
593.552	34.60271241
593.745	34.61797454
593.937	34.63637096
594.13	34.65369174
594.323	34.67625919
594.515	34.6975324
594.708	34.71479408
594.901	34.73331207
595.094	34.74727769
595.286	34.77239347
595.479	34.79324141
595.672	34.80667237
595.864	34.82132842
596.057	34.84439076
596.249	34.85843276
596.442	34.88014475
596.635	34.90375497
596.827	34.92978078
597.02	34.94311695
597.212	34.9540685
597.405	34.98044223
597.597	35.00376619
597.79	35.02740689
597.982	35.03324166
598.175	35.04788924
598.367	35.05718433
598.559	35.07371263
598.752	35.08780041
598.944	35.10180439
599.137	35.10774526
599.329	35.1149078
599.521	35.12369287
599.714	35.12614447
599.906	35.14647305
600.098	35.16562318
600.291	35.17904915
600.483	35.19062596
600.675	35.20862691
600.868	35.21604729
601.06	35.25085244
601.252	35.2689133
601.444	35.27419805
601.637	35.28861318
601.829	35.29678696
602.021	35.30747618
602.213	35.33174796
602.405	35.35602204
602.597	35.35799375
602.789	35.37621013
602.982	35.38094226
603.174	35.40507269
603.366	35.41547292
603.558	35.43890307
603.75	35.46027912
603.942	35.46566362
604.134	35.46747374
604.326	35.48014756
604.518	35.48426965
604.71	35.48283745
604.902	35.48836653
605.094	35.48090689
605.286	35.48836829
605.478	35.49402889
605.67	35.48900515
605.862	35.49317876
606.054	35.50119233
606.246	35.51689099
606.437	35.52196692
606.629	35.53756069
606.821	35.53885795
607.013	35.54171109
607.205	35.54223419
607.397	35.54556201
607.588	35.53460438
607.78	35.54329144
607.972	35.541792
608.164	35.54184425
608.355	35.55235823
608.547	35.55728089
608.739	35.55760107
608.93	35.55372571
609.122	35.55100716
609.314	35.54795021
609.505	35.56033686
609.697	35.56536975
609.889	35.57255721
610.08	35.58761824
610.272	35.57783328
610.463	35.56689275
610.655	35.57044937
610.847	35.57899471
611.038	35.59212733
611.23	35.60218283
611.421	35.61154327
611.613	35.62015937
611.804	35.61670028
611.996	35.6139497
612.187	35.61094485
612.379	35.61217062
612.57	35.60045222
612.761	35.62049454
612.953	35.63611849
613.144	35.65563605
613.336	35.66102799
613.527	35.66315368
613.718	35.66547418
613.91	35.68674756
614.101	35.67961842
614.292	35.69558935
614.483	35.70839514
614.675	35.71525928
614.866	35.72174275
615.057	35.71510799
615.248	35.71027854
615.44	35.69896882
615.631	35.70695602
615.822	35.7227477
616.013	35.72928024
616.204	35.73507653
616.396	35.73743601
616.587	35.75835198
616.778	35.76719149
616.969	35.76820442
617.16	35.74678376
617.351	35.7579637
617.542	35.750458
617.733	35.76002663
617.924	35.74292262
618.115	35.74822667
618.306	35.73058473
618.497	35.72653167
618.688	35.71153863
618.879	35.70832578
619.07	35.73300693
619.261	35.73151946
619.452	35.73970414
619.643	35.73435822
619.834	35.73146876
620.025	35.73895232
620.216	35.74686666
620.407	35.74751339
620.597	35.76129531
620.788	35.75043733
620.979	35.7457793
621.17	35.75744015
621.361	35.74277618
621.551	35.75235047
621.742	35.74131791
621.933	35.75174178
622.124	35.74683181
622.314	35.7510097
622.505	35.76072229
622.696	35.76439148
622.886	35.77337711
623.077	35.75267157
623.268	35.75737711
623.458	35.7556799
623.649	35.76640557
623.84	35.76441373
624.03	35.75997953
624.221	35.75658241
624.411	35.74923208
624.602	35.74868506
624.792	35.74163489
624.983	35.74152737
625.173	35.7446967
625.364	35.7715645
625.554	35.76899019
625.745	35.778323
625.935	35.77075338
626.126	35.77532036
626.316	35.77939994
626.507	35.77859305
626.697	35.78359108
626.887	35.77535009
627.078	35.78613464
627.268	35.78943823
627.458	35.81298625
627.649	35.80473186
627.839	35.81091982
628.029	35.82119973
628.22	35.82396265
628.41	35.82946693
628.6	35.81042843
628.79	35.82421085
628.981	35.82972437
629.171	35.83106461
629.361	35.81871462
629.551	35.81190056
629.741	35.81763809
629.932	35.8242659
630.122	35.81797669
630.312	35.81488889
630.502	35.82397506
630.692	35.83282114
630.882	35.84287751
631.072	35.85158421
631.262	35.86690479
631.452	35.86017454
631.642	35.85848516
631.832	35.8769811
632.022	35.87555203
632.212	35.88236656
632.402	35.89674122
632.592	35.9139403
632.782	35.92239784
632.972	35.92738749
633.162	35.93959058
633.352	35.95248436
633.542	35.96301652
633.732	35.96200595
633.922	35.97022631
634.111	35.98816142
634.301	35.98559647
634.491	35.98772131
634.681	35.99993704
634.871	36.00307799
635.06	36.00416117
635.25	35.99331246
635.44	36.00599512
635.63	36.0147157
635.819	35.99823878
636.009	35.98559796
636.199	35.98709628
636.388	35.96889024
636.578	35.97587038
636.768	35.97011742
636.957	35.9774657
637.147	35.98616016
637.337	35.980813
637.526	35.99789642
637.716	36.00124378
637.905	35.98979244
638.095	35.98425632
638.284	35.98953942
638.474	35.99118138
638.663	35.97485027
638.853	35.98238472
639.042	35.97521665
639.232	35.98037479
639.421	35.97200479
639.611	35.97639475
639.8	35.97858736
639.99	35.99611927
640.179	36.00078399
640.368	36.00610278
640.558	35.99111086
640.747	35.99394911
640.936	35.98624154
641.126	35.97096973
641.315	35.97644647
641.504	35.97047617
641.694	35.97851757
641.883	35.98294553
642.072	35.97284369
642.261	35.97657898
642.451	35.97698832
642.64	35.99145987
642.829	35.97466028
643.018	35.96892808
643.207	35.95948582
643.397	35.94269813
643.586	35.94866836
643.775	35.95564992
643.964	35.94512404
644.153	35.95045106
644.342	35.96152891
644.531	35.98276248
644.72	35.97838448
644.909	35.97878387
645.098	35.98313027
645.287	35.97581469
645.476	35.98201982
645.665	35.98266478
645.854	35.98099092
646.043	35.991449
646.232	35.99809661
646.421	35.99822408
646.61	35.98637954
646.799	35.98267039
646.988	35.99684124
647.177	36.01387663
647.365	36.03260168
647.554	36.03602745
647.743	36.0385667
647.932	36.05962024
648.121	36.03880163
648.309	36.03574968
648.498	36.03567947
648.687	36.0402234
648.876	36.04881318
649.064	36.04516897
649.253	36.06172826
649.442	36.04787523
649.63	36.0460723
649.819	36.07123507
650.008	36.0744166
650.196	36.10317601
650.385	36.10744235
650.574	36.10724748
650.762	36.12290766
650.951	36.14146379
651.139	36.13774123
651.328	36.13692213
651.516	36.14638069
651.705	36.16502198
651.893	36.16962199
652.082	36.19410444
652.27	36.21715237
652.459	36.23255461
652.647	36.22729335
652.836	36.23592477
653.024	36.26956959
653.213	36.28393046
653.401	36.29953269
653.589	36.31185037
653.778	36.31241127
653.966	36.32521568
654.154	36.33076887
654.343	36.33067798
654.531	36.37423894
654.719	36.38615535
654.908	36.39170662
655.096	36.41551815
655.284	36.42523432
655.472	36.43094001
655.661	36.42650261
655.849	36.43831505
656.037	36.45033802
656.225	36.45120983
656.413	36.45291389
656.601	36.48282194
656.79	36.50012642
656.978	36.5093965
657.166	36.51424692
657.354	36.53632858
657.542	36.54863791
657.73	36.57084346
657.918	36.57933188
658.106	36.57639096
658.294	36.58560583
658.482	36.58252842
658.67	36.59246464
658.858	36.59315483
659.046	36.60090396
659.234	36.6232574
659.422	36.64447949
659.61	36.65280151
659.798	36.65865041
659.986	36.65451666
660.173	36.67253179
660.361	36.67109805
660.549	36.69200105
660.737	36.68821044
660.925	36.67510512
661.113	36.69030455
661.3	36.69949684
661.488	36.7284729
661.676	36.72705233
661.864	36.73915137
662.051	36.76151753
662.239	36.78637198
662.427	36.77813347
662.614	36.80813923
662.802	36.82801821
662.99	36.82856009
663.177	36.8420564
663.365	36.8416128
663.553	36.84854839
663.74	36.86321077
663.928	36.8758879
664.115	36.89119617
664.303	36.90389297
664.49	36.90537028
664.678	36.92093061
664.866	36.93435809
665.053	36.9109172
665.24	36.9276402
665.428	36.91295799
665.615	36.91956897
665.803	36.93256406
665.99	36.9327008
666.178	36.9745083
666.365	37.00342995
666.552	36.99268534
666.74	36.97555208
666.927	36.98957363
667.114	36.99644227
667.302	37.00886498
667.489	37.01714237
667.676	37.02472225
667.864	37.05584281
668.051	37.04813598
668.238	37.06593172
668.425	37.07264665
668.613	37.08244227
668.8	37.09926305
668.987	37.13287326
669.174	37.13478641
669.361	37.14683055
669.548	37.17011618
669.736	37.18359611
669.923	37.18293646
670.11	37.16853998
670.297	37.1712217
670.484	37.18602834
670.671	37.20839299
670.858	37.20732306
671.045	37.21795605
671.232	37.22169221
671.419	37.22758353
671.606	37.23457648
671.793	37.23220511
671.98	37.2454439
672.167	37.24803597
672.354	37.2546648
672.541	37.25590156
672.728	37.25520119
672.915	37.25649687
673.101	37.26920891
673.288	37.28025955
673.475	37.28311119
673.662	37.28296044
673.849	37.27997061
674.035	37.27403789
674.222	37.28154846
674.409	37.28440716
674.596	37.30178336
674.783	37.31762476
674.969	37.32242333
675.156	37.32713618
675.343	37.33460993
675.529	37.34517402
675.716	37.37169333
675.903	37.37683029
676.089	37.40001513
676.276	37.40346281
676.462	37.43763407
676.649	37.45886138
676.836	37.47852035
677.022	37.48782084
677.209	37.49024083
677.395	37.48976608
677.582	37.5100253
677.768	37.53255092
677.955	37.55329211
678.141	37.56131765
678.328	37.58524465
678.514	37.60754206
678.701	37.61133902
678.887	37.61632622
679.073	37.63880191
679.26	37.66586724
679.446	37.67086964
679.632	37.65934876
679.819	37.68604977
680.005	37.70236097
680.191	37.72723693
680.378	37.727717
680.564	37.76028777
680.75	37.75175619
680.936	37.76353183
681.123	37.78230878
681.309	37.80852889
681.495	37.83574301
681.681	37.84100963
681.867	37.84493128
682.054	37.86745974
682.24	37.88205032
682.426	37.87702367
682.612	37.9271918
682.798	37.95931535
682.984	37.9853534
683.17	38.0020799
683.356	38.0335613
683.542	38.05157659
683.728	38.0648357
683.914	38.06400053
684.1	38.08174064
684.286	38.10126105
684.472	38.09831634
684.658	38.15790919
684.844	38.19099567
685.03	38.19785999
685.216	38.24105302
685.402	38.25317936
685.588	38.30738561
685.774	38.31216336
685.96	38.33248172
686.145	38.34947383
686.331	38.4174067
686.517	38.42195749
686.703	38.4418062
686.889	38.4492045
687.074	38.47669713
687.26	38.51208206
687.446	38.54911706
687.631	38.56999135
687.817	38.61605527
688.003	38.6297389
688.189	38.66022798
688.374	38.70715049
688.56	38.73145069
688.745	38.73159201
688.931	38.80016632
689.117	38.81999082
689.302	38.85837636
689.488	38.86894465
689.673	38.92127712
689.859	38.9584874
690.044	38.97670314
690.23	38.98545668
690.415	39.031155
690.601	39.08571771
690.786	39.11796258
690.972	39.15167631
691.157	39.17776429
691.343	39.23297911
691.528	39.275472
691.713	39.3230893
691.899	39.38552662
692.084	39.42942891
692.269	39.46559021
692.455	39.49797259
692.64	39.54365839
692.825	39.56597009
693.011	39.60093183
693.196	39.63962712
693.381	39.68165668
693.566	39.73296357
693.752	39.76677548
693.937	39.82458983
694.122	39.87489814
694.307	39.93313682
694.492	39.94417201
694.678	39.99771782
694.863	40.05392401
695.048	40.11972686
695.233	40.15742116
695.418	40.17939519
695.603	40.19238051
695.788	40.2173248
695.973	40.26363138
696.158	40.29116144
696.343	40.32416685
696.528	40.37077198
696.713	40.42870906
696.898	40.47091741
697.083	40.50551786
697.268	40.56993572
697.453	40.60694655
697.638	40.6613113
697.823	40.72142565
698.008	40.75559139
698.192	40.77065073
698.377	40.82117719
698.562	40.86509195
698.747	40.88850131
698.932	40.93352695
699.117	40.95723996
699.301	41.02082076
699.486	41.05588947
699.671	41.10836661
699.856	41.12805321
700.04	41.19194455
700.225	41.22196838
700.41	41.27385292
700.594	41.31213883
700.779	41.3509182
700.964	41.37351382
701.148	41.42001439
701.333	41.46891096
701.517	41.49795368
701.702	41.51951563
701.887	41.56622268
702.071	41.60608675
702.256	41.66318605
702.44	41.69151491
702.625	41.75344688
702.809	41.77523654
702.994	41.82333193
703.178	41.87074677
703.362	41.95319567
703.547	41.98927
703.731	42.05600543
703.916	42.07279874
704.1	42.14213686
704.284	42.14624079
704.469	42.16816639
704.653	42.19683512
704.837	42.25817888
705.022	42.25122441
705.206	42.27757153
705.39	42.33946455
705.575	42.38415438
705.759	42.39277587
705.943	42.42355702
706.127	42.45938151
706.311	42.51079588
706.496	42.53493329
706.68	42.55018626
706.864	42.56919944
707.048	42.59795216
707.232	42.60419297
707.416	42.61871353
707.6	42.62844152
707.785	42.68739907
707.969	42.705069
708.153	42.76108583
708.337	42.77683035
708.521	42.82089884
708.705	42.82598726
708.889	42.87884478
709.073	42.90995747
709.257	42.93324323
709.441	42.94306378
709.624	42.99136676
709.808	43.01690535
709.992	43.04043228
710.176	43.05184726
710.36	43.08913816
710.544	43.12326482
710.728	43.16085761
710.912	43.18183742
711.095	43.22131031
711.279	43.25006639
711.463	43.28248222
711.647	43.29482393
711.83	43.31901438
712.014	43.34886469
712.198	43.40013547
712.382	43.40838606
712.565	43.44993001
712.749	43.47045525
712.933	43.48836517
713.116	43.48789251
713.3	43.52558386
713.483	43.54840185
713.667	43.57926311
713.851	43.57907758
714.034	43.60278554
714.218	43.60383225
714.401	43.62750593
714.585	43.63645394
714.768	43.63883519
714.952	43.68011867
715.135	43.73493428
715.319	43.75756908
715.502	43.7504705
715.686	43.76032608
715.869	43.78969932
716.052	43.80341367
716.236	43.81278997
716.419	43.83994106
716.602	43.85699504
716.786	43.88286986
716.969	43.89933917
717.152	43.89626565
717.336	43.91156323
717.519	43.9295052
717.702	43.96103211
717.885	43.98827704
718.069	44.0338468
718.252	44.06655467
718.435	44.08821902
718.618	44.12365278
718.801	44.11322378
718.985	44.10816903
719.168	44.13894212
719.351	44.17114806
719.534	44.18906055
719.717	44.17625247
719.9	44.20174849
720.083	44.25001004
720.266	44.26123849
720.449	44.28997788
720.632	44.29596302
720.815	44.33389715
720.998	44.39747063
721.181	44.39388068
721.364	44.40836335
721.547	44.45355876
721.73	44.46869689
721.913	44.47287121
722.096	44.48547668
722.279	44.51283233
722.461	44.52308419
722.644	44.54471657
722.827	44.58894276
723.01	44.61848297
723.193	44.63323202
723.376	44.67093207
723.558	44.71937591
723.741	44.75494903
723.924	44.7780559
724.107	44.81877654
724.289	44.84749728
724.472	44.87898245
724.655	44.89835208
724.837	44.92779627
725.02	44.95187706
725.203	44.95984983
725.385	44.98802335
725.568	44.99696075
725.75	45.0004938
725.933	45.0248535
726.115	45.07275884
726.298	45.10865327
726.481	45.13168452
726.663	45.13513816
726.845	45.14681658
727.028	45.20607094
727.21	45.23713919
727.393	45.26300345
727.575	45.28178112
727.758	45.32439362
727.94	45.31949134
728.122	45.33559777
728.305	45.3679614
728.487	45.37218878
728.67	45.36196062
728.852	45.40560815
729.034	45.43853202
729.216	45.41525746
729.399	45.44714387
729.581	45.47885418
729.763	45.50516558
729.945	45.51314056
730.128	45.53270042
730.31	45.57649684
730.492	45.60657456
730.674	45.60570274
730.856	45.60301625
731.039	45.60508929
731.221	45.62468212
731.403	45.63941742
731.585	45.61724528
731.767	45.65781482
731.949	45.65185012
732.131	45.65078292
732.313	45.68599787
732.495	45.69851945
732.677	45.72228239
732.859	45.73833593
733.041	45.7489445
733.223	45.79299358
733.405	45.82012717
733.587	45.82759832
733.769	45.85566787
733.951	45.87369474
734.132	45.85457278
734.314	45.86903784
734.496	45.89768777
734.678	45.9007723
734.86	45.92638878
735.042	45.94023483
735.223	45.95817017
735.405	45.99235595
735.587	46.00159252
735.769	46.03660879
735.95	46.07631378
736.132	46.12926465
736.314	46.17363344
736.495	46.17933043
736.677	46.19684579
736.859	46.24080578
737.04	46.23878499
737.222	46.2330224
737.403	46.252643
737.585	46.26558918
737.767	46.27011402
737.948	46.31020374
738.13	46.34314745
738.311	46.35744253
738.493	46.38734485
738.674	46.40345841
738.856	46.43565015
739.037	46.45716683
739.219	46.48046984
739.4	46.49825134
739.581	46.51283115
739.763	46.52665286
739.944	46.51446691
740.125	46.5152429
740.307	46.55441901
740.488	46.5844859
740.669	46.60567584
740.851	46.60751921
741.032	46.6383545
741.213	46.64430766
741.395	46.65542268
741.576	46.69113928
741.757	46.69364885
741.938	46.69868306
742.119	46.7123223
742.301	46.72446256
742.482	46.75047063
742.663	46.75041077
742.844	46.74073343
743.025	46.75612916
743.206	46.77996132
743.387	46.81688486
743.568	46.81694351
743.749	46.84319223
743.93	46.82689256
744.111	46.82681768
744.292	46.84511284
744.473	46.84274722
744.654	46.87371233
744.835	46.90990935
745.016	46.94828855
745.197	46.95595954
745.378	46.95531026
745.559	46.95667897
745.74	46.98794206
745.921	47.00117318
746.102	47.02717422
746.282	47.0297445
746.463	47.02878195
746.644	47.03444826
746.825	47.05285569
747.006	47.05123669
747.186	47.03866009
747.367	47.08964487
747.548	47.07665971
747.728	47.13509148
747.909	47.11484459
748.09	47.11704195
748.27	47.13757495
748.451	47.15269428
748.632	47.16016257
748.812	47.15232099
748.993	47.15940161
749.173	47.17133022
749.354	47.19083783
749.535	47.18277433
749.715	47.20562536
749.896	47.22183736
750.076	47.23558933
750.257	47.27299971
750.437	47.29803299
750.618	47.30045164
750.798	47.32828603
750.978	47.33836904
751.159	47.31494984
751.339	47.32580983
751.52	47.34414913
751.7	47.38459853
751.88	47.4140509
752.061	47.439702
752.241	47.44224384
752.421	47.44330644
752.601	47.46117894
752.782	47.50124009
752.962	47.54171855
753.142	47.56234492
753.322	47.58185154
753.503	47.59353322
753.683	47.59439062
753.863	47.62698358
754.043	47.63638784
754.223	47.68872306
754.403	47.7074896
754.583	47.73158127
754.764	47.77008862
754.944	47.81450811
755.124	47.85949634
755.304	47.86187624
755.484	47.88417956
755.664	47.88025676
755.844	47.9000086
756.024	47.90499842
756.204	47.89505945
756.384	47.9519389
756.564	47.96934268
756.743	47.96794973
756.923	48.0070552
757.103	48.01843559
757.283	48.01022434
757.463	48.04607893
757.643	47.9867908
757.823	48.00421869
758.002	47.98601883
758.182	48.01372331
758.362	48.01228604
758.542	48.01369833
758.721	47.98665272
758.901	47.98244036
759.081	47.96396386
759.261	47.98899104
759.44	48.02220966
759.62	48.01629581
759.8	48.04755632
759.979	48.09044517
760.159	48.03164971
760.338	48.02425463
760.518	48.0192181
760.698	48.0308323
760.877	48.06146783
761.057	48.09477942
761.236	48.09548938
761.416	48.13213809
761.595	48.12270316
761.775	48.13418303
761.954	48.11834693
762.133	48.10555309
762.313	48.12467488
762.492	48.11960961
762.672	48.12618478
762.851	48.12800298
763.03	48.11298035
763.21	48.08820383
763.389	48.0910464
763.568	48.11565348
763.748	48.11337772
763.927	48.15102075
764.106	48.14710395
764.286	48.1339008
764.465	48.11787725
764.644	48.12624338
764.823	48.0981717
765.002	48.09197339
765.182	48.13029158
765.361	48.10849043
765.54	48.09735264
765.719	48.13816689
765.898	48.13963055
766.077	48.14603097
766.256	48.17140363
766.435	48.19308318
766.614	48.21437935
766.793	48.24486301
766.972	48.28163829
767.151	48.27224875
767.33	48.28693268
767.509	48.30804921
767.688	48.28814576
767.867	48.29951996
768.046	48.32822078
768.225	48.32700959
768.404	48.34652201
768.583	48.34931702
768.762	48.35011098
768.94	48.36613515
769.119	48.39011572
769.298	48.4247005
769.477	48.39640808
769.656	48.41204617
769.834	48.42408595
770.013	48.41434727
770.192	48.42076594
770.37	48.40689943
770.549	48.43370852
770.728	48.43431192
770.906	48.48276139
771.085	48.48049908
771.264	48.493989
771.442	48.51940164
771.621	48.53009877
771.799	48.5696215
771.978	48.604875
772.157	48.58063289
772.335	48.63970829
772.514	48.66315876
772.692	48.66320099
772.871	48.66510618
773.049	48.66309475
773.228	48.68168333
773.406	48.70399759
773.584	48.70653737
773.763	48.7729649
773.941	48.81157168
774.119	48.86323664
774.298	48.88636154
774.476	48.89935895
774.655	48.90274617
774.833	48.93087746
775.011	48.94925594
775.189	49.00734464
775.368	49.04861039
775.546	49.04750384
775.724	49.06413987
775.902	49.10849203
776.08	49.12891986
776.259	49.15232945
776.437	49.17808203
776.615	49.24379407
776.793	49.28705482
776.971	49.34153592
777.149	49.35560876
777.327	49.40814738
777.505	49.4093636
777.683	49.40411227
777.861	49.45075931
778.04	49.47674127
778.218	49.50144452
778.395	49.54938171
778.573	49.58112327
778.751	49.62543566
778.929	49.63091985
779.107	49.65955804
779.285	49.71285659
779.463	49.76734055
779.641	49.81137659
779.819	49.86604324
779.997	49.92491135
780.174	49.98225264
780.352	50.00666177
780.53	50.0347687
780.708	50.06172499
780.886	50.15159171
781.063	50.21544379
781.241	50.27976649
781.419	50.32174391
781.596	50.36035419
781.774	50.3769157
781.952	50.43139983
782.129	50.4630988
782.307	50.50227781
782.485	50.55136154
782.662	50.58904643
782.84	50.62869179
783.017	50.67156345
783.195	50.72360193
783.372	50.74882537
783.55	50.77340463
783.727	50.81106843
783.905	50.83315741
784.082	50.86235052
784.26	50.92094395
784.437	50.98702161
784.615	51.0375763
784.792	51.05935573
784.969	51.09952329
785.147	51.15579476
785.324	51.20915513
785.501	51.24806471
785.679	51.35198814
785.856	51.39323044
786.033	51.43987433
786.211	51.47759655
786.388	51.55085184
786.565	51.61450579
786.742	51.6542265
786.92	51.72784696
787.097	51.80033976
787.274	51.86035822
787.451	51.91062294
787.628	51.94463364
787.805	52.03356839
787.982	52.11304981
788.16	52.12302395
788.337	52.13842246
788.514	52.16821302
788.691	52.19520028
788.868	52.26663066
789.045	52.32651441
789.222	52.38170415
789.399	52.39130689
789.576	52.47643289
789.753	52.5213838
789.93	52.59076262
790.106	52.63950014
790.283	52.69797951
790.46	52.72400996
790.637	52.71040076
790.814	52.75976646
790.991	52.79583195
791.168	52.85559741
791.344	52.92977851
791.521	53.00893256
791.698	53.02082354
791.875	53.10523489
792.051	53.16832056
792.228	53.26163156
792.405	53.3234445
792.581	53.36465447
792.758	53.34800038
792.935	53.4394326
793.111	53.49602236
793.288	53.5257928
793.465	53.58108587
793.641	53.57090625
793.818	53.61317037
793.994	53.65908178
794.171	53.73167012
794.347	53.78598122
794.524	53.83557401
794.7	53.89804532
794.877	53.99668816
795.053	54.05888491
795.23	54.10198248
795.406	54.13824196
795.583	54.15500478
795.759	54.20001956
795.935	54.19560069
796.112	54.25945885
796.288	54.31313922
796.464	54.39543954
796.641	54.384731
796.817	54.44069557
796.993	54.46206139
797.169	54.53433416
797.346	54.63924435
797.522	54.69820562
797.698	54.75958336
797.874	54.79169987
798.051	54.82710826
798.227	54.86252322
798.403	54.94304659
798.579	54.9075274
798.755	54.92783729
798.931	54.94969854
799.107	55.00640481
799.283	55.08823646
799.459	55.13803715
799.635	55.24753226
799.811	55.31668403
799.987	55.39963488
800.163	55.44834504
800.339	55.56194224
800.515	55.60046677
800.691	55.72726187
800.867	55.76376325
801.043	55.80332175
801.219	55.88201674
801.395	55.90761475
801.571	55.96476842
801.746	56.06298391
801.922	56.14208965
802.098	56.14574251
802.274	56.16867783
802.45	56.23970121
802.625	56.27393783
802.801	56.34570803
802.977	56.39812889
803.152	56.47327046
803.328	56.51076176
803.504	56.58649352
803.679	56.62557075
803.855	56.67906167
804.031	56.66495257
804.206	56.71293885
804.382	56.68292376
804.557	56.7330652
804.733	56.76757828
804.909	56.80779062
805.084	56.86619909
805.26	56.95807082
805.435	57.06671542
805.61	57.1123632
805.786	57.20169143
805.961	57.3614007
806.137	57.46713042
806.312	57.57840408
806.488	57.68530083
806.663	57.76213501
806.838	57.86774759
807.014	57.96536783
807.189	57.98946702
807.364	58.08662589
807.54	58.31261737
807.715	58.47198151
807.89	58.55781455
808.065	58.74837242
808.241	58.86674433
808.416	59.02719272
808.591	59.12495761
808.766	59.20191064
808.941	59.32907572
809.116	59.35695771
809.291	59.44420477
809.467	59.63292053
809.642	59.77261919
809.817	59.82459998
809.992	59.8874483
810.167	59.97411102
810.342	60.11866717
810.517	60.22543091
810.692	60.31129324
810.867	60.45308036
811.042	60.59080796
811.217	60.55311181
811.392	60.71586535
811.567	60.91759936
811.741	61.01117567
811.916	61.08448875
812.091	61.1862665
812.266	61.32215201
812.441	61.46949197
812.616	61.59122321
812.79	61.67528019
812.965	61.77901411
813.14	61.81126027
813.315	61.82412476
813.489	61.82913761
813.664	61.96319289
813.839	62.06222663
814.013	62.21440499
814.188	62.22417688
814.363	62.2847302
814.537	62.34164981
814.712	62.35726177
814.887	62.41478276
815.061	62.42604088
815.236	62.39783755
815.41	62.43299951
815.585	62.5447459
815.759	62.50596338
815.934	62.49169018
816.108	62.46263498
816.283	62.40282818
816.457	62.41292315
816.631	62.41743195
816.806	62.43047067
816.98	62.4525081
817.155	62.69104817
817.329	62.62550778
817.503	62.68545958
817.678	62.59061648
817.852	62.67478531
818.026	62.68704668
818.201	62.72084978
818.375	62.79013919
818.549	62.82225972
818.723	62.82548777
818.897	62.84497596
819.072	62.79691741
819.246	62.86990397
819.42	62.88408308
819.594	62.94342187
819.768	62.98418359
819.942	63.13439141
820.116	63.23599252
820.29	63.34282712
820.465	63.42731067
820.639	63.49794112
820.813	63.43785973
820.987	63.48629826
821.161	63.37180104
821.335	63.40063629
821.509	63.37745165
821.682	63.51613343
821.856	63.61144865
822.03	63.52101129
822.204	63.53334749
822.378	63.5993777
822.552	63.57835548
822.726	63.69591935
822.9	63.651007
823.073	63.66059213
823.247	63.69719162
823.421	63.82713726
823.595	63.7872608
823.768	63.83815003
823.942	63.8001417
824.116	63.94147777
824.289	63.93551689
824.463	63.98956766
824.637	64.23392499
824.81	64.27704507
824.984	64.33209728
825.158	64.44453527
825.331	64.29224869
825.505	64.29736493
825.678	64.37903474
825.852	64.54902939
826.025	64.57539531
826.199	64.66692987
826.372	64.66016623
826.546	64.77218644
826.719	64.90283518
826.893	64.88119455
827.066	64.86144333
827.24	64.89145971
827.413	65.00143994
827.586	65.14008191
827.76	65.09580783
827.933	65.17851633
828.106	65.17417855
828.28	65.05307961
828.453	65.20048845
828.626	65.27514588
828.799	65.33346716
828.973	65.47068824
829.146	65.53547595
829.319	65.61385925
829.492	65.56491188
829.665	65.57895006
829.839	65.6304959
830.012	65.65330175
830.185	65.74508208
830.358	65.83911774
830.531	65.91756892
830.704	65.94224646
830.877	66.06697274
831.05	65.94474862
831.223	65.97493404
831.396	65.93949045
831.569	66.02695712
831.742	66.04078296
831.915	66.06166821
832.088	66.14809073
832.261	66.2630226
832.434	66.25594862
832.607	66.34020161
832.779	66.30867335
832.952	66.28989316
833.125	66.27875638
833.298	66.25391285
833.471	66.29666442
833.643	66.32787252
833.816	66.18947752
833.989	66.03851977
834.162	66.05808658
834.334	66.24386077
834.507	66.22634901
834.68	66.26872104
834.852	66.21450717
835.025	66.1980622
835.198	66.05944461
835.37	66.14793975
835.543	66.35151479
835.715	66.32541025
835.888	66.35152204
836.061	66.29896071
836.233	66.29620681
836.406	66.29740223
836.578	66.41304182
836.751	66.38331886
836.923	66.58141517
837.095	66.7538123
837.268	67.02452663
837.44	67.09577877
837.613	67.38233326
837.785	67.60782552
837.957	67.59736437
838.13	67.55758348
838.302	67.79367143
838.474	68.01280574
838.647	68.23944128
838.819	68.46213376
838.991	68.50676536
839.163	68.48423623
839.336	68.57510127
839.508	68.57676789
839.68	68.76876104
839.852	68.89786845
840.024	69.07847996
840.196	69.15944964
840.368	69.41828596
840.541	69.40642094
840.713	69.33708045
840.885	69.25821915
841.057	69.33215615
841.229	69.36877377
841.401	69.25386757
841.573	69.32485998
841.745	69.54593943
841.917	69.6002021
842.089	69.57414929
842.261	69.55645928
842.432	69.8159073
842.604	69.88665512
842.776	70.0624432
842.948	70.05794474
843.12	70.08717979
843.292	70.12951943
843.464	70.20641531
843.635	70.31568436
843.807	70.33613704
843.979	70.60210561
844.151	70.71276462
844.322	70.94229796
844.494	71.04217913
844.666	71.27755673
844.837	71.35899109
845.009	71.62358917
845.181	71.86028736
845.352	71.86937315
845.524	71.89786792
845.695	72.03469906
845.867	72.00959684
846.039	72.10678027
846.21	72.35390369
846.382	72.5034232
846.553	72.71589338
846.725	72.99167308
846.896	73.21213741
847.068	73.35321259
847.239	73.51529249
847.41	73.66466439
847.582	73.55464567
847.753	73.56823721
847.925	73.6470438
848.096	73.79140095
848.267	73.79541455
848.439	73.96318474
848.61	73.98598456
848.781	73.85097998
848.952	74.00283485
849.124	74.22276003
849.295	74.09284737
849.466	74.25824139
849.637	74.02174797
849.808	74.04094342
849.98	74.06949425
850.151	74.09819778
850.322	74.05056273
850.493	73.81194675
850.664	73.61961471
850.835	73.39693155
851.006	73.18408875
851.177	73.28207388
851.348	73.55403839
851.519	73.62163406
851.69	73.67545116
851.861	73.76270791
852.032	73.58943226
852.203	73.64728425
852.374	73.72082652
852.545	73.42165864
852.716	73.30174489
852.887	73.64434837
853.057	73.71626972
853.228	73.92553666
853.399	74.09182995
853.57	73.94358553
853.741	74.22501253
853.911	74.07908822
854.082	74.16348333
854.253	74.55434939
854.424	74.94467865
854.594	75.43543544
854.765	75.46743138
854.936	75.29273617
855.106	75.01208394
855.277	75.13929914
855.447	75.31276488
855.618	75.52695807
855.789	75.70831398
855.959	75.91553943
856.13	76.45732464
856.3	76.91617872
856.471	77.03289661
856.641	77.0820996
856.812	77.33849381
856.982	77.29890294
857.153	77.62436548
857.323	77.64732193
857.493	78.13567318
857.664	78.4695374
857.834	78.44776119
858.004	78.28069287
858.175	78.40123286
858.345	78.50240102
858.515	78.63986021
858.686	79.0875377
858.856	78.71805441
859.026	78.69691923
859.196	79.04363621
859.367	79.03622182
859.537	79.10870741
859.707	79.28285978
859.877	78.67274344
860.047	78.86167892
860.217	79.07616105
860.387	78.92049098
860.558	78.80787037
860.728	78.91699956
860.898	78.95033198
861.068	78.82975456
861.238	78.67887977
861.408	78.74870858
861.578	79.21322553
861.748	79.00219031
861.918	79.53459739
862.088	79.47751011
862.257	79.57131781
862.427	80.38123093
862.597	80.08007501
862.767	79.91385462
862.937	80.25428725
863.107	80.53820649
863.277	80.57648978
863.446	81.19176712
863.616	80.93466329
863.786	80.94744122
863.956	80.98629546
864.125	81.47785129
864.295	81.67693323
864.465	81.71986063
864.634	82.21561128
864.804	82.54420993
864.974	82.5884249
865.143	82.98498761
865.313	83.29765082
865.482	82.92410057
865.652	83.20217015
865.822	83.23266925
865.991	82.90022361
866.161	83.62269939
866.33	84.16775234
866.5	84.26494548
866.669	84.23584124
866.838	84.68657972
867.008	85.14100486
867.177	85.33022584
867.347	85.55932655
867.516	86.26320201
867.685	86.48849546
867.855	85.90978723
868.024	86.6781293
868.193	86.240122
868.363	86.11343076
868.532	86.4977561
868.701	86.27255579
868.87	86.44861496
869.04	86.73003107
869.209	87.5337251
869.378	87.98864952
869.547	88.50077749
869.716	88.63610337
869.885	88.57537188
870.055	88.58410494
870.224	88.44439276
870.393	87.97970801
870.562	87.89242934
870.731	88.05021515
870.9	88.5855486
871.069	89.01981357
871.238	89.17715313
871.407	90.2621568
871.576	89.94598216
871.745	90.60063224
871.914	91.72837902
872.083	92.40003492
872.251	92.23544974
872.42	92.41750422
872.589	92.62034005
872.758	91.64528472
872.927	92.21298442
873.096	92.58819771
873.264	93.24867236
873.433	93.5990676
873.602	94.30552935
873.771	95.40410535
873.939	95.45128769
874.108	95.56090515
874.277	96.08638296
874.445	96.34640071
874.614	95.68338201
874.783	95.65304187
874.951	95.01383648
875.12	95.37738709
875.288	95.92647283
875.457	95.86957628
875.625	95.5348885
875.794	95.58013919
875.962	95.63410657
876.131	95.25871172
876.299	96.9261967
876.468	96.9078876
876.636	97.28731323
876.805	98.09141135
876.973	98.19972826
877.141	97.78876762
877.31	96.84787574
877.478	97.44214373
877.647	97.36483686
877.815	97.78985724
877.983	97.52622325
878.151	98.25730708
878.32	99.07896353
878.488	99.51267658
878.656	100.01873595
878.824	100.16996097
878.992	100.65882052
879.161	101.04166667
879.329	101.74234083
879.497	102.86333487
879.665	104.18851688
879.833	103.31769437
880.001	104.3212393
880.169	104.05581014
880.337	103.53841909
880.505	103.72466806
880.673	105.74418108
880.841	105.86662813
881.009	107.0207615
881.177	107.81077297
881.345	108.93942806
881.513	109.03380197
881.681	109.7170315
881.849	110.22322121
882.017	109.24681344
882.185	109.61449141
882.352	110.53546043
882.52	109.32679377
882.688	110.84867242
882.856	111.55306156
883.024	111.71506577
883.191	111.71031097
883.359	112.60128292
883.527	110.55546233
883.694	111.19283118
883.862	112.06341133
884.03	111.62074277
884.197	109.11782635
884.365	111.93386685
884.533	112.82165833
884.7	112.19665085
884.868	111.68274384
885.035	113.86452021
885.203	114.21520237
885.37	113.78135353
885.538	116.62737058
885.705	116.76785517
885.873	115.40512345
886.04	117.07286898
886.208	115.5783461
886.375	115.27758453
886.542	115.18719807
886.71	115.61712846
886.877	116.5696617
