Data from gv_f_Reflection_001.txt Node
Date: Tue Nov 21 14:19:53 AEST 2023
User: uqkchene_local
Spectrometer: USB4E02642
Trigger mode: 4
Integration Time (sec): 7.600000E-2
Scans to average: 10
Electric dark correction enabled: true
Nonlinearity correction enabled: false
Boxcar width: 10
XAxis mode: Wavelengths
Number of Pixels in Spectrum: 3648
>>>>>Begin Spectral Data<<<<<
179.217	369.73180077
179.432	198.07692308
179.647	193.84683488
179.862	112.01465201
180.077	621.48148148
180.293	275.62189055
180.508	579.38342967
180.723	-199.34640523
180.938	-6433.33333337
181.153	-126.88172043
181.368	190.32258065
181.583	339.37007874
181.798	-410.06711409
182.013	191.57667387
182.228	261.00178891
182.443	115.67198178
182.658	97.69496735
182.873	112.68423403
183.088	96.4104565
183.303	91.47050678
183.518	87.16078203
183.733	71.75556035
183.948	70.05427662
184.162	62.19064346
184.377	46.32342062
184.592	47.17921338
184.807	42.75374239
185.022	35.88826435
185.237	42.058361
185.452	36.9739333
185.667	35.43051248
185.882	40.7386444
186.096	41.81418965
186.311	40.71585476
186.526	45.36237841
186.741	32.46417968
186.956	29.65704789
187.17	30.16447865
187.385	33.56155005
187.6	38.62906603
187.815	36.5612352
188.03	44.15377945
188.244	43.32648871
188.459	31.66533865
188.674	32.31810491
188.889	49.09534458
189.103	52.79213202
189.318	65.4726542
189.533	79.92904207
189.747	71.17888354
189.962	72.62603766
190.177	78.11168423
190.391	65.92755214
190.606	73.0414252
190.821	73.61137441
191.035	61.8730335
191.25	80.56045463
191.465	80.52173913
191.679	86.39347523
191.894	82.09088874
192.109	88.43018669
192.323	107.78210117
192.538	116.22319814
192.752	107.5624578
192.967	134.49814126
193.181	121.77907237
193.396	109.04410119
193.611	104.27758817
193.825	87.7943887
194.04	73.31425505
194.254	72.22866611
194.469	70.62470196
194.683	63.67757473
194.898	60.42824231
195.112	60.16024313
195.327	62.77240701
195.541	70.3636638
195.756	57.83926219
195.97	61.27761362
196.184	60.2053559
196.399	60.35539982
196.613	54.02035914
196.828	52.39102338
197.042	39.76995469
197.257	41.75651121
197.471	33.29440617
197.685	34.69778576
197.9	36.78550555
198.114	37.77548653
198.328	42.87232629
198.543	48.80244088
198.757	53.80974917
198.971	65.90945706
199.186	66.84841876
199.4	78.75148029
199.614	73.73358349
199.829	73.624318
200.043	63.79163108
200.257	81.61283931
200.471	60.97925621
200.686	67.7352637
200.9	78.59731401
201.114	90.56381222
201.328	76.69728882
201.543	94.50412191
201.757	100.75778078
201.971	102.13407562
202.185	112.19787667
202.399	112.11377123
202.614	113.46582843
202.828	116.57888711
203.042	108.45235766
203.256	92.97161614
203.47	79.24003707
203.684	95.57352628
203.899	90.73532719
204.113	88.28733937
204.327	76.96335079
204.541	88.14595295
204.755	78.55168601
204.969	96.67948978
205.183	86.17871076
205.397	76.72698969
205.611	75.96601254
205.825	80.88205128
206.039	83.34329548
206.253	84.49499545
206.467	76.15996894
206.681	71.51314644
206.895	69.74528485
207.109	61.01723844
207.323	64.08631357
207.537	60.00644019
207.751	62.16951201
207.965	65.26628143
208.179	54.22720354
208.393	54.37177521
208.607	58.48648649
208.821	63.96514878
209.035	60.3150662
209.249	65.91478697
209.463	71.13402062
209.677	68.29669508
209.891	74.37785304
210.104	69.37491634
210.318	68.50269489
210.532	69.91947591
210.746	66.46458672
210.96	83.58711332
211.174	72.36122618
211.387	71.12075896
211.601	72.07722008
211.815	68.50996016
212.029	67.98919466
212.243	72.05048473
212.456	61.95071515
212.67	61.86099943
212.884	63.42203965
213.098	60.82216265
213.311	62.21652534
213.525	74.42635811
213.739	60.31843233
213.953	54.19317525
214.166	63.30412083
214.38	60.15523933
214.594	57.02788695
214.807	57.64109068
215.021	62.41610738
215.235	58.21862348
215.448	48.13297621
215.662	52.06176522
215.876	47.68740032
216.089	46.98051322
216.303	49.99051413
216.516	59.83991648
216.73	66.40692641
216.944	73.91466369
217.157	83.40890008
217.371	76.6390109
217.584	74.61436756
217.798	65.57065614
218.011	58.4255498
218.225	63.43037808
218.439	58.83668904
218.652	55.5245146
218.866	59.55656471
219.079	64.95801479
219.293	58.45399612
219.506	51.55178426
219.719	57.00211997
219.933	63.06992609
220.146	65.48681646
220.36	66.4741056
220.573	67.96106661
220.787	60.80716521
221	49.71379199
221.214	44.10090412
221.427	44.9051002
221.64	42.01779779
221.854	43.32719991
222.067	41.6978352
222.28	41.01424501
222.494	44.03151954
222.707	39.32669272
222.92	43.1550867
223.134	38.45765493
223.347	34.34550677
223.56	28.97251213
223.774	33.64613289
223.987	32.28421555
224.2	24.20392157
224.414	18.86825818
224.627	5.32368763
224.84	4.47162623
225.053	-18.41449604
225.267	-9.20412532
225.48	4.77294686
225.693	13.19536738
225.906	9.94965236
226.119	4.55337149
226.333	-20.53852764
226.546	-36.18139993
226.759	-13.3352452
226.972	-40.0192864
227.185	-8.68741543
227.398	-9.88518622
227.612	15.68473422
227.825	32.50820914
228.038	31.74134693
228.251	33.17622414
228.464	30.18027572
228.677	28.90774125
228.89	35.74136899
229.103	45.10999782
229.316	51.61094225
229.529	59.3744856
229.743	71.65069608
229.956	78.21448624
230.169	68.88348672
230.382	59.06621641
230.595	55.16586293
230.808	61.06348976
231.021	65.04704214
231.234	71.91857669
231.447	89.55453149
231.66	80.57938178
231.872	85.25378451
232.085	74.32551578
232.298	60.88492285
232.511	55.92917188
232.724	66.24749408
232.937	72.14057508
233.15	84.40262979
233.363	66.85973306
233.576	60.63268893
233.789	52.38314529
234.002	68.12048949
234.214	68.82814772
234.427	66.07198748
234.64	87.20818676
234.853	99.86125564
235.066	102.55772647
235.279	101.01962784
235.491	90.80095163
235.704	77.10128279
235.917	67.52847586
236.13	69.82391103
236.342	59.52841809
236.555	63.60007982
236.768	61.31374814
236.981	58.53780671
237.193	51.48360229
237.406	50.61097939
237.619	54.7012987
237.832	56.65972111
238.044	58.89693422
238.257	61.03614084
238.47	52.025417
238.682	48.97537728
238.895	38.39626644
239.108	31.92972267
239.32	31.23936253
239.533	44.74000343
239.746	42.20046818
239.958	41.91780822
240.171	25.30185135
240.383	26.676783
240.596	32.21957041
240.808	39.03181189
241.021	41.82024383
241.234	32.37350884
241.446	28.16586922
241.659	29.64315819
241.871	50.09330845
242.084	35.99546871
242.296	39.86466608
242.509	35.13199884
242.721	50.88204773
242.934	66.38740797
243.146	60.06918705
243.359	77.6026094
243.571	80.31473534
243.784	67.74758983
243.996	54.04780262
244.208	49.80642223
244.421	60.16119747
244.633	77.7399205
244.846	70.77957478
245.058	74.4734098
245.27	70.80291971
245.483	61.15129151
245.695	67.94712929
245.907	84.54367764
246.12	82.07442597
246.332	79.62874822
246.544	90.78803071
246.757	93.31546587
246.969	91.70074209
247.181	89.42984346
247.394	83.45498783
247.606	85.31835206
247.818	85.62622162
248.03	89.21014376
248.243	88.25046568
248.455	73.13868613
248.667	73.67808662
248.879	67.83600404
249.092	62.06950778
249.304	64.54130467
249.516	57.37284513
249.728	63.00537914
249.94	68.11642137
250.153	68.17607794
250.365	59.88494727
250.577	62.20652796
250.789	57.29948067
251.001	47.48703273
251.213	48.70512592
251.425	57.27592631
251.637	44.66334704
251.85	40.44424896
252.062	40.74400176
252.274	40.57491732
252.486	37.68886997
252.698	28.11334825
252.91	52.01709858
253.122	36.87549564
253.334	38.00046827
253.546	31.59767747
253.758	24.7334309
253.97	36.66202506
254.182	34.67211658
254.394	36.30664517
254.606	30.4225846
254.818	33.55335534
255.03	27.51077758
255.242	40.20265004
255.454	50.19118869
255.666	50.20193152
255.877	50.87950025
256.089	54.41818456
256.301	59.31323041
256.513	67.02143607
256.725	56.06039618
256.937	63.87136483
257.149	69.62101767
257.361	65.68524884
257.572	75.89128697
257.784	86.79636422
257.996	95.36848693
258.208	95.50083599
258.42	85.33353875
258.631	85.89762502
258.843	87.67185375
259.055	87.46062697
259.267	84.73515494
259.479	95.50902746
259.69	81.6038519
259.902	64.82912588
260.114	54.65789886
260.325	48.1418051
260.537	43.66683947
260.749	36.13701237
260.961	31.80037472
261.172	35.2341455
261.384	33.40803586
261.596	36.04592267
261.807	32.69698671
262.019	26.07633014
262.23	20.11587905
262.442	12.81393217
262.654	2.02082058
262.865	9.34796371
263.077	0.2910823
263.288	-19.69650986
263.5	-1.70558908
263.712	10.67856177
263.923	17.8807947
264.135	33.00414774
264.346	37.73547492
264.558	38.71281353
264.769	38.39742375
264.981	32.77856708
265.192	32.39318038
265.404	25.76725026
265.615	36.07907743
265.827	33.15086137
266.038	29.91976659
266.25	30.12014134
266.461	36.17076663
266.673	31.20366626
266.884	44.20158708
267.095	53.79242911
267.307	51.04839773
267.518	53.97193411
267.73	61.90927395
267.941	63.19504644
268.152	61.51934682
268.364	59.54757152
268.575	51.43428953
268.786	46.68313774
268.998	54.03678101
269.209	54.67883122
269.42	59.84839222
269.632	58.19759838
269.843	62.55907781
270.054	60.44009189
270.265	64.25678164
270.477	64.48280371
270.688	68.71709259
270.899	61.61967125
271.11	55.39324377
271.322	43.80165289
271.533	43.46002288
271.744	47.83995746
271.955	36.49564376
272.166	23.84862091
272.378	17.95913187
272.589	21.65786266
272.8	25.64323526
273.011	29.8938895
273.222	31.84371489
273.433	26.20446533
273.644	28.56953467
273.856	30.47391365
274.067	34.89428125
274.278	32.96407659
274.489	35.51752241
274.7	36.6672557
274.911	40.63580959
275.122	32.19725532
275.333	35.95681205
275.544	45.99449515
275.755	42.46374689
275.966	36.17926535
276.177	35.5321907
276.388	48.11598263
276.599	53.98614695
276.81	52.75263392
277.021	47.39149496
277.232	45.96091706
277.443	43.41579025
277.654	43.51364289
277.865	45.97501186
278.076	44.6255144
278.287	28.92734596
278.497	36.25264529
278.708	40.55321144
278.919	42.35781082
279.13	38.40487321
279.341	34.26412194
279.552	34.8594928
279.763	29.54578648
279.973	23.96643783
280.184	36.21545004
280.395	41.86929023
280.606	41.38234924
280.817	38.91749341
281.027	40.24748055
281.238	44.43180382
281.449	43.79297412
281.66	43.89922016
281.87	45.77490111
282.081	49.20634921
282.292	50.21327792
282.503	45.56357353
282.713	55.19809354
282.924	50.20400417
283.135	47.86251547
283.345	47.09052709
283.556	45.7464193
283.767	44.37993718
283.977	45.23832544
284.188	50.93867334
284.399	55.14672063
284.609	49.10912068
284.82	48.97625685
285.03	48.62544822
285.241	42.79805604
285.451	41.91308008
285.662	44.81953497
285.873	37.19738825
286.083	32.40650932
286.294	30.27522936
286.504	27.23372305
286.715	25.82148948
286.925	32.62799465
287.136	32.86986218
287.346	37.09086612
287.557	42.0336269
287.767	42.54432941
287.978	39.80282694
288.188	42.54345837
288.399	40.95667153
288.609	41.51078109
288.819	40.72142547
289.03	43.96931382
289.24	48.53990042
289.451	49.57033549
289.661	49.75094156
289.871	56.04512276
290.082	53.42430149
290.292	63.32908901
290.502	65.22554189
290.713	70.44160445
290.923	74.25072886
291.133	71.46371464
291.344	59.98615438
291.554	56.36000499
291.764	51.28238175
291.974	42.60934209
292.185	36.92868053
292.395	37.82454535
292.605	42.87754373
292.815	48.4548105
293.026	43.96360174
293.236	42.08066094
293.446	40.03026423
293.656	33.2937967
293.866	25.00331961
294.077	29.47212097
294.287	29.82725528
294.497	27.58019058
294.707	25.10563893
294.917	28.34528481
295.127	34.55619845
295.337	27.34032665
295.548	22.10268283
295.758	32.52886986
295.968	33.20749969
296.178	33.99974036
296.388	44.8314139
296.598	48.36476899
296.808	57.11211113
297.018	52.6135217
297.228	44.03382975
297.438	50.47619048
297.648	47.5095019
297.858	58.34456208
298.068	60.98554266
298.278	63.35648583
298.488	61.9657315
298.698	50.0949094
298.908	48.92971003
299.118	38.43452816
299.328	42.51956875
299.538	32.7971403
299.748	27.28610856
299.957	36.03683372
300.167	37.39371855
300.377	30.79912147
300.587	28.27452876
300.797	13.34583262
301.007	21.7745332
301.217	19.41004592
301.426	22.04850425
301.636	27.2070336
301.846	19.16656207
302.056	21.63535389
302.266	17.83783784
302.475	19.89019787
302.685	21.66457071
302.895	22.52694483
303.105	21.03045624
303.314	16.62864045
303.524	23.51186248
303.734	23.93150494
303.944	32.71273109
304.153	40.64072665
304.363	41.37713203
304.573	41.84234062
304.782	52.62564231
304.992	60.17136181
305.202	65.11308259
305.411	69.85754227
305.621	70.70169211
305.831	68.90920967
306.04	71.49963424
306.25	81.02466793
306.459	77.45980233
306.669	76.67918858
306.878	77.00418894
307.088	81.09896044
307.298	78.53187562
307.507	77.70543039
307.717	76.04760096
307.926	70.67818373
308.136	66.53742216
308.345	66.9278447
308.555	63.10012196
308.764	59.23401493
308.974	67.76246023
309.183	61.86553604
309.392	55.87439727
309.602	56.19636114
309.811	54.2612033
310.021	49.42471855
310.23	52.35235235
310.44	48.47639245
310.649	48.37498533
310.858	54.89842529
311.068	62.66269989
311.277	54.27838358
311.486	44.95605405
311.696	46.51314929
311.905	43.79986477
312.114	44.36591546
312.324	42.45535086
312.533	45.32622786
312.742	28.62053505
312.952	27.68718218
313.161	26.64130974
313.37	17.44486692
313.579	9.70273125
313.789	3.96327467
313.998	-9.13063836
314.207	-7.01233797
314.416	-13.71956339
314.625	-17.07317073
314.835	-18.25642896
315.044	-20.20614892
315.253	-17.04601277
315.462	-24.97214706
315.671	-25.81704997
315.88	-31.4495839
316.09	-29.22440538
316.299	-27.09640616
316.508	-13.92763291
316.717	-14.49112559
316.926	-13.17231581
317.135	-4.05099733
317.344	-1.59601853
317.553	3.00120048
317.762	3.61115865
317.971	19.35427268
318.18	26.76547515
318.389	42.95762265
318.598	28.79409352
318.807	40.6732324
319.016	28.20512821
319.225	36.08674852
319.434	33.54769561
319.643	28.54196414
319.852	20.89117395
320.061	22.62360579
320.27	26.61364897
320.479	22.71789173
320.688	24.64854733
320.897	8.78286271
321.105	14.91151218
321.314	10.92275092
321.523	14.05333838
321.732	15.88304094
321.941	21.02586779
322.15	10.85876508
322.359	2.55797275
322.567	12.22140583
322.776	14.75409836
322.985	27.04583633
323.194	15.82850521
323.403	33.59552888
323.611	39.87302888
323.82	42.5347572
324.029	40.23754949
324.237	48.41582463
324.446	49.63157033
324.655	50.47568002
324.864	56.61287639
325.072	62.76221099
325.281	71.33630632
325.49	67.53395516
325.698	73.99441799
325.907	73.50676023
326.116	64.13495609
326.324	61.62241407
326.533	73.624318
326.741	68.17672483
326.95	55.58379666
327.159	47.47283892
327.367	52.35283903
327.576	59.53334494
327.784	60.1826484
327.993	48.10810811
328.201	44.71095772
328.41	45.3365004
328.618	51.40186916
328.827	47.88229291
329.035	29.69789094
329.244	26.39685401
329.452	25.11273519
329.661	16.89540937
329.869	21.73058014
330.078	18.51747859
330.286	20.67352666
330.495	31.18220514
330.703	32.24164029
330.911	26.08635291
331.12	26.17315647
331.328	32.68745853
331.537	28.43450479
331.745	23.42937456
331.953	23.80206293
332.162	20.38382454
332.37	22.09652012
332.578	23.28537505
332.787	26.06880668
332.995	16.52173913
333.203	17.26273417
333.411	24.44923741
333.62	29.95360027
333.828	16.32613349
334.036	14.42485306
334.244	9.89053198
334.453	15.02229114
334.661	10.952097
334.869	-5.03505417
335.077	-3.85201306
335.285	-24.30398796
335.494	-4.40337668
335.702	5.34583228
335.91	0.60606061
336.118	5.3488884
336.326	-5.02307901
336.534	9.92330932
336.742	-0.11544678
336.951	4.90276637
337.159	-0.13970383
337.367	-0.03149606
337.575	-14.51791651
337.783	-21.82289737
337.991	-11.10404073
338.199	13.17829457
338.407	39.37570515
338.615	46.97760049
338.823	44.54847478
339.031	63.56857523
339.239	60.10549029
339.447	60.24301337
339.655	64.67029643
339.863	64.24771228
340.071	46.39362912
340.279	49.05702241
340.487	48.19066633
340.695	42.51217137
340.903	47.5445224
341.11	56.33021708
341.318	53.89327745
341.526	53.44273389
341.734	54.10278012
341.942	50.70010771
342.15	52.57439773
342.358	43.68900976
342.565	39.62158374
342.773	32.1795413
342.981	26.67176741
343.189	18.70753435
343.397	4.81403961
343.604	10.62794094
343.812	8.40322836
344.02	8.15062762
344.228	1.34152255
344.435	0.33129904
344.643	1.75568287
344.851	11.59765191
345.058	6.67394072
345.266	-15.77801959
345.474	-22.96065792
345.681	-20.80339046
345.889	-11.35608049
346.097	-3.8502511
346.304	-1.51019773
346.512	-3.64605851
346.72	7.5022993
346.927	1.98713367
347.135	0.82923401
347.342	1.40193276
347.55	-0.99610221
347.758	3.47232311
347.965	5.22227018
348.173	8.48182466
348.38	17.14247776
348.588	18.23916253
348.795	32.50737463
349.003	30.83204134
349.21	29.96020466
349.418	36.04664723
349.625	35.53233948
349.833	37.33731343
350.04	45.0856518
350.247	47.27251213
350.455	49.46353225
350.662	52.25176343
350.87	61.05677347
351.077	59.65267039
351.284	64.07437727
351.492	62.79704377
351.699	68.69184455
351.906	67.58224543
352.114	65.1695692
352.321	64.96631376
352.528	65.55659301
352.736	61.7778703
352.943	62.26651362
353.15	56.44533422
353.358	59.00666263
353.565	60.30871003
353.772	56.29926034
353.979	51.62495754
354.187	43.38051624
354.394	38.42047798
354.601	34.13814561
354.808	33.11143656
355.015	32.21540559
355.223	35.05919084
355.43	40.51175477
355.637	29.64696951
355.844	36.14977214
356.051	28.24056302
356.258	38.89838307
356.465	39.59371407
356.673	39.29735603
356.88	33.83104126
357.087	29.78576365
357.294	36.80134246
357.501	30.53948766
357.708	39.77371628
357.915	45.06566604
358.122	51.42680667
358.329	52.0749317
358.536	59.31696373
358.743	62.41393277
358.95	69.17688266
359.157	70.61961428
359.364	66.86354687
359.571	62.39860029
359.778	42.8379513
359.985	47.91172716
360.192	44.89381348
360.399	34.53464611
360.606	25.00446828
360.812	25.96663395
361.019	21.95708843
361.226	25.4745723
361.433	27.34035958
361.64	10.4449203
361.847	21.70062002
362.054	8.10106799
362.26	-15.30637559
362.467	-15.51538627
362.674	4.85024155
362.881	7.45971753
363.088	21.16114135
363.294	6.79863703
363.501	12.14121259
363.708	18.47323692
363.915	9.24514738
364.121	23.66234145
364.328	33.36128581
364.535	30.5499923
364.741	36.62887377
364.948	30.65704405
365.155	26.73696374
365.361	24.4324496
365.568	13.86153168
365.775	10.66021539
365.981	7.56972112
366.188	5.4007243
366.395	11.85477506
366.601	22.62032908
366.808	13.68314493
367.014	3.5643919
367.221	-4.31110329
367.427	-2.89389068
367.634	7.24312184
367.84	5.59050872
368.047	-4.09032019
368.254	6.25124033
368.46	16.88570953
368.667	0.63279696
368.873	7.45916821
369.079	4.6884044
369.286	9.67202841
369.492	8.38624918
369.699	9.76325572
369.905	18.60174782
370.112	21.31491519
370.318	30.30746706
370.524	27.6551622
370.731	23.39261286
370.937	25.94653068
371.144	21.05338486
371.35	22.92837585
371.556	26.72080948
371.763	19.21676917
371.969	14.95522022
372.175	9.3878635
372.381	12.91682637
372.588	8.44686649
372.794	2.06838328
373	10.09198083
373.206	5.59036737
373.413	5.79956872
373.619	13.76202532
373.825	14.39114391
374.031	15.08698545
374.238	20.41702867
374.444	25.88026525
374.65	26.22129831
374.856	23.45400472
375.062	19.36144968
375.268	13.26778729
375.475	12.76478981
375.681	19.73341664
375.887	16.67211151
376.093	13.98447457
376.299	15.96053395
376.505	27.09150673
376.711	33.1255655
376.917	37.43559833
377.123	40.93538582
377.329	40.61535398
377.535	44.0955152
377.741	48.89740139
377.947	45.28201301
378.153	46.12599566
378.359	48.92816062
378.565	46.87228916
378.771	39.77571916
378.977	38.35235446
379.183	43.4642515
379.389	47.37445728
379.595	50.6758359
379.801	54.21023665
380.007	54.71515152
380.213	52.18668148
380.418	51.34757282
380.624	55.43873212
380.83	49.98101891
381.036	48.99851921
381.242	48.57789513
381.448	45.81448803
381.653	46.87665632
381.859	44.18674473
382.065	41.20914335
382.271	41.6281795
382.476	38.5422976
382.682	37.10326625
382.888	37.50244539
383.094	37.11059449
383.299	36.52702271
383.505	35.94055041
383.711	33.22065728
383.916	31.67616305
384.122	30.83987107
384.328	26.78736946
384.533	29.4537841
384.739	29.85993084
384.945	28.57714972
385.15	27.44585728
385.356	25.61076949
385.562	25.65462565
385.767	25.865493
385.973	25.79251471
386.178	28.66790056
386.384	29.00562105
386.589	29.31695713
386.795	32.8497824
387	33.83699405
387.206	29.84716046
387.411	32.27001136
387.617	32.22988949
387.822	32.98925139
388.028	31.93303997
388.233	32.65734578
388.439	33.31866391
388.644	33.83994906
388.85	35.2097361
389.055	35.15071862
389.26	30.971485
389.466	32.43666439
389.671	32.07902903
389.877	30.32796384
390.082	30.44880408
390.287	29.46486631
390.493	26.21463303
390.698	26.56492597
390.903	26.46561761
391.109	24.79482716
391.314	26.17491876
391.519	27.50443957
391.724	26.8596606
391.93	23.85076852
392.135	20.84989623
392.34	20.9068534
392.545	20.98615742
392.751	20.44235263
392.956	20.58163427
393.161	18.38228676
393.366	18.03287747
393.571	16.8557163
393.776	14.70711806
393.982	13.77385093
394.187	12.94571848
394.392	11.21371862
394.597	10.76906678
394.802	10.89567278
395.007	10.55418229
395.212	10.10235143
395.417	9.72093782
395.622	9.56499248
395.827	9.19621141
396.032	8.99871806
396.237	9.128805
396.442	9.31381761
396.647	9.46918141
396.852	9.13856702
397.057	9.10674734
397.262	8.97104612
397.467	9.17244619
397.672	9.10812591
397.877	9.12357189
398.082	9.10789924
398.287	9.02049343
398.492	9.05464323
398.697	9.16744091
398.902	9.22829695
399.107	9.20850116
399.311	9.22121935
399.516	9.18464312
399.721	9.18902588
399.926	9.04554382
400.131	9.06318057
400.336	9.11049231
400.54	9.25121456
400.745	9.12814222
400.95	9.06517319
401.155	9.0844496
401.359	9.05110332
401.564	9.16545769
401.769	9.09959581
401.974	9.08740159
402.178	9.33985111
402.383	9.31507806
402.588	9.41127446
402.792	9.42793451
402.997	9.42274918
403.202	9.40035614
403.406	9.40056921
403.611	9.45302197
403.815	9.42062307
404.02	9.47013418
404.225	9.5373257
404.429	9.84672747
404.634	9.84337472
404.838	9.83394451
405.043	9.90861869
405.247	9.91669536
405.452	10.05845261
405.656	10.07295059
405.861	10.06732669
406.065	10.01481679
406.27	10.03578567
406.474	9.93485134
406.679	10.14867519
406.883	10.13578471
407.088	10.22397586
407.292	10.18540747
407.497	10.23539355
407.701	10.38351407
407.905	10.48182215
408.11	10.50143219
408.314	10.74105425
408.518	10.81254525
408.723	10.78703779
408.927	10.75730094
409.131	10.87166566
409.336	10.86763752
409.54	10.78737526
409.744	10.79604607
409.949	11.19168607
410.153	11.31115971
410.357	11.28881447
410.561	11.40701854
410.766	11.20258319
410.97	10.82692899
411.174	10.79819608
411.378	10.84857245
411.582	10.84129383
411.787	10.75634895
411.991	10.50087554
412.195	10.24754659
412.399	10.63741106
412.603	10.60550335
412.807	10.45256858
413.011	10.1319237
413.215	10.37097724
413.419	10.19631288
413.624	10.20326296
413.828	10.06681037
414.032	10.09890295
414.236	10.06584556
414.44	9.83562197
414.644	9.70471441
414.848	9.80312051
415.052	9.83527895
415.256	10.08159624
415.46	9.9865495
415.664	9.92114458
415.868	10.23189804
416.072	10.27137408
416.275	10.34591755
416.479	10.42927292
416.683	10.21258885
416.887	10.08006729
417.091	10.26623735
417.295	10.35074109
417.499	10.04891407
417.703	10.04697071
417.906	10.01933561
418.11	10.12778334
418.314	10.24945596
418.518	10.12294552
418.722	10.10854026
418.925	10.16537087
419.129	10.08945759
419.333	10.26700027
419.537	10.33832719
419.74	10.44758754
419.944	10.46901588
420.148	10.38865614
420.352	10.29950206
420.555	10.35510168
420.759	10.28459532
420.963	10.25538775
421.166	10.25949185
421.37	10.21596885
421.573	10.20715808
421.777	10.33647757
421.981	10.25056843
422.184	10.33154847
422.388	10.38508408
422.591	10.41753973
422.795	10.33994924
422.999	10.31268149
423.202	10.37334831
423.406	10.37689146
423.609	10.32642441
423.813	10.21728038
424.016	10.14510936
424.22	10.05100426
424.423	9.90365623
424.627	9.9455152
424.83	9.99253103
425.033	9.97128592
425.237	9.96325338
425.44	9.94761931
425.644	9.89383107
425.847	9.94613187
426.05	9.97103623
426.254	10.00708398
426.457	10.03514536
426.66	10.03549464
426.864	9.94614288
427.067	9.97013146
427.27	9.98852257
427.474	10.00495559
427.677	9.94446928
427.88	9.92864368
428.084	9.94032829
428.287	9.96755881
428.49	9.99583316
428.693	10.01008283
428.896	10.04147854
429.1	10.01024015
429.303	10.04307085
429.506	10.05353535
429.709	10.07107704
429.912	10.07353817
430.116	10.06381204
430.319	10.08221503
430.522	10.06735448
430.725	10.06147613
430.928	10.06167566
431.131	10.09862649
431.334	10.09275401
431.537	10.09957349
431.74	10.07666903
431.943	10.11662627
432.146	10.15338565
432.349	10.14291681
432.552	10.13092587
432.755	10.12099173
432.958	10.10445066
433.161	10.10387536
433.364	10.12563588
433.567	10.12646465
433.77	10.14236298
433.973	10.12263004
434.176	10.14396302
434.379	10.14470019
434.582	10.12845564
434.785	10.16229248
434.988	10.17075748
435.19	10.17292934
435.393	10.1546763
435.596	10.17469357
435.799	10.16992694
436.002	10.20984914
436.205	10.17550016
436.407	10.12829642
436.61	10.16501415
436.813	10.15978216
437.016	10.16725253
437.218	10.20664526
437.421	10.20810534
437.624	10.20201762
437.827	10.16004613
438.029	10.19016023
438.232	10.22064301
438.435	10.18634657
438.637	10.24241952
438.84	10.22992928
439.043	10.22999482
439.245	10.20600596
439.448	10.21086077
439.65	10.22101325
439.853	10.18649623
440.056	10.20397233
440.258	10.18884373
440.461	10.20646821
440.663	10.27805395
440.866	10.27747989
441.068	10.42042536
441.271	10.39848484
441.473	10.42422506
441.676	10.44194169
441.878	10.47430676
442.081	10.53481273
442.283	10.51747534
442.486	10.55244585
442.688	10.59050496
442.89	10.53846934
443.093	10.61457566
443.295	10.60802497
443.498	10.63203735
443.7	10.6155429
443.902	10.62881186
444.105	10.71237374
444.307	10.74325366
444.509	10.72866024
444.712	10.79763571
444.914	10.7274938
445.116	10.77466725
445.319	10.67966892
445.521	10.7173353
445.723	10.70847295
445.925	10.79829061
446.128	10.78952799
446.33	10.78182955
446.532	10.7254151
446.734	10.69245022
446.936	10.71807998
447.139	10.68308772
447.341	10.66196247
447.543	10.72687542
447.745	10.75554781
447.947	10.80360772
448.149	10.75951133
448.351	10.66518176
448.553	10.72196893
448.755	10.79777473
448.958	10.83095264
449.16	10.83247675
449.362	10.74056212
449.564	10.65892569
449.766	10.72707352
449.968	10.78079143
450.17	10.71296149
450.372	10.72745589
450.574	10.74394764
450.776	10.74258164
450.978	10.7424061
451.179	10.75795804
451.381	10.76481325
451.583	10.79387294
451.785	10.75571587
451.987	10.73018401
452.189	10.82416861
452.391	10.88811025
452.593	11.01595508
452.795	10.9174541
452.996	10.85878894
453.198	10.82027929
453.4	10.91023759
453.602	11.02216077
453.804	11.08884359
454.005	11.04875555
454.207	10.98451945
454.409	10.92564823
454.611	10.90322224
454.812	10.87287997
455.014	10.94977691
455.216	10.93555172
455.417	10.97764013
455.619	10.98962963
455.821	10.92956563
456.022	10.98018738
456.224	10.97033746
456.426	10.88185791
456.627	10.89517764
456.829	10.88973099
457.031	10.9980066
457.232	11.05077859
457.434	11.05048548
457.635	10.99601153
457.837	10.91913548
458.038	10.89824511
458.24	10.89894521
458.441	10.92207219
458.643	10.93398857
458.844	10.85514812
459.046	10.91118593
459.247	10.91183052
459.449	10.99496228
459.65	10.9750944
459.852	11.08239756
460.053	11.18287628
460.254	11.16382654
460.456	11.23172012
460.657	11.34932977
460.859	11.33808043
461.06	11.34767443
461.261	11.32432996
461.463	11.35755571
461.664	11.45598283
461.865	11.47375763
462.066	11.49174469
462.268	11.58503395
462.469	11.6307778
462.67	11.66107338
462.872	11.70902937
463.073	11.84901808
463.274	11.84077986
463.475	11.80513129
463.676	11.80220437
463.878	11.80841476
464.079	11.80789856
464.28	11.75650759
464.481	11.78751425
464.682	11.81102695
464.883	11.73636074
465.085	11.76635343
465.286	11.78073558
465.487	11.84562981
465.688	11.79484576
465.889	11.71865665
466.09	11.70565736
466.291	11.74297634
466.492	11.71504287
466.693	11.70579727
466.894	11.74530322
467.095	11.78444271
467.296	11.79289008
467.497	11.87825494
467.698	11.90775641
467.899	11.91356156
468.1	12.01243316
468.301	12.07634284
468.502	12.15680333
468.703	12.20397698
468.903	12.25290207
469.104	12.24729288
469.305	12.29487286
469.506	12.32176523
469.707	12.29428137
469.908	12.36949583
470.109	12.41760483
470.309	12.47830122
470.51	12.56164448
470.711	12.68100674
470.912	12.76975041
471.112	12.6943699
471.313	12.75105361
471.514	12.78548239
471.715	12.79882479
471.915	12.91700518
472.116	12.95450526
472.317	12.96245117
472.517	12.92938337
472.718	13.02262548
472.919	13.03391183
473.119	13.03655014
473.32	13.10495197
473.521	13.07376829
473.721	13.13896244
473.922	13.128883
474.122	13.17595988
474.323	13.25296578
474.523	13.2922075
474.724	13.23414096
474.925	13.22145103
475.125	13.19934245
475.326	13.29945938
475.526	13.30592729
475.727	13.30199394
475.927	13.29997054
476.127	13.23890309
476.328	13.27768437
476.528	13.28937271
476.729	13.31460051
476.929	13.27614661
477.13	13.28182945
477.33	13.27193827
477.53	13.29489907
477.731	13.30945403
477.931	13.2683984
478.131	13.29033958
478.332	13.28072371
478.532	13.28673907
478.732	13.28773343
478.933	13.29395686
479.133	13.27726845
479.333	13.2686402
479.533	13.24690481
479.734	13.25072082
479.934	13.27884141
480.134	13.28948336
480.334	13.32027433
480.534	13.32235845
480.735	13.32808418
480.935	13.31719229
481.135	13.33070083
481.335	13.33533241
481.535	13.34702617
481.735	13.34821289
481.935	13.36441533
482.136	13.36483233
482.336	13.37131381
482.536	13.38328689
482.736	13.37019002
482.936	13.37515958
483.136	13.39506916
483.336	13.40950721
483.536	13.42936505
483.736	13.448064
483.936	13.46314012
484.136	13.45691849
484.336	13.44141828
484.536	13.42949379
484.736	13.42104506
484.936	13.41158341
485.135	13.4334246
485.335	13.42353076
485.535	13.43007477
485.735	13.42630491
485.935	13.41861154
486.135	13.43697222
486.335	13.4521285
486.534	13.4531633
486.734	13.44433484
486.934	13.44674695
487.134	13.44097297
487.334	13.4283498
487.533	13.4121738
487.733	13.400667
487.933	13.41019459
488.133	13.37966444
488.332	13.36508826
488.532	13.37984159
488.732	13.38870326
488.931	13.4008338
489.131	13.39997189
489.331	13.37443614
489.53	13.36466547
489.73	13.3565038
489.93	13.37419442
490.129	13.39239531
490.329	13.36696346
490.528	13.35130986
490.728	13.35512449
490.928	13.37319191
491.127	13.38247725
491.327	13.39732551
491.526	13.4186414
491.726	13.42970224
491.925	13.44380763
492.125	13.44728642
492.324	13.46664427
492.524	13.47752478
492.723	13.48929844
492.922	13.48306264
493.122	13.48171431
493.321	13.48422277
493.521	13.50340583
493.72	13.52120151
493.919	13.51503512
494.119	13.49513351
494.318	13.47967339
494.517	13.48586754
494.717	13.50923302
494.916	13.47442179
495.115	13.46391983
495.315	13.43910913
495.514	13.45254787
495.713	13.43655774
495.912	13.43225052
496.112	13.46341577
496.311	13.45380652
496.51	13.45729553
496.709	13.49686691
496.908	13.47541599
497.108	13.51556347
497.307	13.51518241
497.506	13.51698989
497.705	13.48325805
497.904	13.47853541
498.103	13.53887809
498.302	13.54261568
498.501	13.54906733
498.701	13.61682081
498.9	13.59522522
499.099	13.67529473
499.298	13.69313316
499.497	13.73538538
499.696	13.67434314
499.895	13.68128346
500.094	13.66702662
500.293	13.65090409
500.492	13.62091949
500.691	13.6965218
500.89	13.6851421
501.088	13.72405379
501.287	13.70292878
501.486	13.73946525
501.685	13.80067569
501.884	13.84452494
502.083	13.96342303
502.282	13.89555386
502.481	13.90408146
502.679	13.88317781
502.878	13.74561784
503.077	13.79429254
503.276	13.7821242
503.475	13.76808907
503.673	13.7593765
503.872	13.79166453
504.071	13.84692779
504.27	13.87549502
504.468	13.91414383
504.667	13.98711289
504.866	13.90481752
505.064	13.88218075
505.263	13.90894644
505.462	13.86206431
505.66	13.79771912
505.859	13.87463609
506.058	13.89747682
506.256	13.84885564
506.455	13.8041667
506.653	13.87743041
506.852	13.96606012
507.05	14.05836471
507.249	14.12656106
507.448	14.1185973
507.646	14.15725971
507.845	14.23010228
508.043	14.24735713
508.242	14.25247349
508.44	14.36409901
508.638	14.10952958
508.837	14.11323034
509.035	14.13122566
509.234	14.10736064
509.432	13.9825842
509.631	14.05398668
509.829	14.05168115
510.027	13.94175563
510.226	13.98871269
510.424	13.93782052
510.622	14.00980604
510.821	13.97199157
511.019	13.89792689
511.217	13.83614122
511.415	13.91658364
511.614	13.89593301
511.812	13.72263911
512.01	13.73771403
512.208	13.8146511
512.407	13.70585477
512.605	13.66826415
512.803	13.9672112
513.001	13.90300547
513.199	13.8681505
513.398	14.13299229
513.596	14.37561211
513.794	14.42064942
513.992	14.3884766
514.19	14.45077409
514.388	14.55028927
514.586	14.61089332
514.784	14.66640953
514.982	14.54749582
515.18	14.48719812
515.378	14.61284827
515.576	14.47092401
515.774	14.53335484
515.972	14.59538942
516.17	14.51597572
516.368	14.5557247
516.566	14.65477464
516.764	14.65051301
516.962	14.56964398
517.16	14.54598369
517.358	14.62527611
517.556	14.50563194
517.754	14.26073356
517.952	14.16510535
518.149	14.32665415
518.347	14.29656573
518.545	14.00189865
518.743	13.93637076
518.941	13.9253461
519.138	14.12844037
519.336	14.22996453
519.534	14.08092764
519.732	14.12036864
519.929	14.1818001
520.127	14.08070816
520.325	13.94040558
520.523	13.91478729
520.72	13.96030919
520.918	14.07808582
521.116	14.12013579
521.313	14.07176005
521.511	14.1741627
521.709	14.07410881
521.906	14.14571804
522.104	14.21184571
522.301	14.12270346
522.499	14.04893431
522.696	14.17660863
522.894	14.1710682
523.092	14.18015398
523.289	14.20282452
523.487	14.01049802
523.684	14.21607984
523.882	14.11433889
524.079	13.96762837
524.276	14.16195086
524.474	14.3045657
524.671	14.23025115
524.869	14.11687506
525.066	14.01289016
525.264	13.83466454
525.461	13.77814535
525.658	13.82253846
525.856	13.7938706
526.053	13.77606171
526.25	13.71600605
526.448	13.63533341
526.645	13.56982612
526.842	13.55494963
527.039	13.53019145
527.237	13.43696484
527.434	13.30261706
527.631	13.35447128
527.828	13.19485447
528.026	13.22211025
528.223	13.21876951
528.42	13.06780169
528.617	13.01556589
528.814	12.99557378
529.012	12.92877997
529.209	12.90696918
529.406	12.94947571
529.603	12.90623577
529.8	12.79697059
529.997	12.72980592
530.194	12.66511137
530.391	12.60145979
530.588	12.56590207
530.785	12.53945497
530.982	12.49457197
531.179	12.45618732
531.376	12.43253336
531.573	12.39679309
531.77	12.36038625
531.967	12.34200982
532.164	12.27988341
532.361	12.26647887
532.558	12.23515138
532.755	12.19354325
532.952	12.1908037
533.149	12.1755506
533.346	12.1624172
533.543	12.15098383
533.739	12.14445809
533.936	12.12795878
534.133	12.12529634
534.33	12.12562506
534.527	12.1248512
534.723	12.12086056
534.92	12.11345084
535.117	12.11495732
535.314	12.1053096
535.51	12.1084705
535.707	12.10143689
535.904	12.10363257
536.1	12.10792242
536.297	12.11903903
536.494	12.11703652
536.69	12.13060012
536.887	12.14315774
537.084	12.14287164
537.28	12.1522893
537.477	12.15550602
537.674	12.15714062
537.87	12.164019
538.067	12.17264975
538.263	12.1836966
538.46	12.18437262
538.656	12.1882999
538.853	12.19866703
539.049	12.20568083
539.246	12.2119633
539.442	12.22300385
539.639	12.23195463
539.835	12.24801762
540.032	12.25535275
540.228	12.26146844
540.424	12.26383718
540.621	12.27065574
540.817	12.27605878
541.014	12.28110225
541.21	12.28414841
541.406	12.28564021
541.603	12.28991963
541.799	12.29545397
541.995	12.2986856
542.191	12.30038969
542.388	12.29651237
542.584	12.29938741
542.78	12.29792545
542.976	12.29668696
543.173	12.29953882
543.369	12.29864811
543.565	12.29442658
543.761	12.28603842
543.957	12.27998123
544.154	12.27611053
544.35	12.27623419
544.546	12.27453129
544.742	12.2683278
544.938	12.26236733
545.134	12.25769349
545.33	12.25717647
545.526	12.25664845
545.722	12.26248746
545.919	12.25632096
546.115	12.25394469
546.311	12.24530642
546.507	12.24514716
546.703	12.24243587
546.899	12.24376188
547.095	12.23650533
547.29	12.22854951
547.486	12.22439521
547.682	12.22229998
547.878	12.22452349
548.074	12.22552473
548.27	12.2254112
548.466	12.21833298
548.662	12.22125981
548.858	12.2239326
549.053	12.22687586
549.249	12.2257082
549.445	12.22363891
549.641	12.22922398
549.837	12.21900864
550.032	12.21838688
550.228	12.21639069
550.424	12.22544182
550.62	12.21994431
550.815	12.22709058
551.011	12.23429739
551.207	12.24331359
551.402	12.24658598
551.598	12.2538787
551.794	12.26558318
551.989	12.26565639
552.185	12.26820389
552.381	12.28495556
552.576	12.29648243
552.772	12.30863779
552.967	12.32174377
553.163	12.318103
553.359	12.33519517
553.554	12.35103032
553.75	12.34307698
553.945	12.35504128
554.141	12.38013232
554.336	12.39899149
554.532	12.42241414
554.727	12.44401062
554.922	12.46478359
555.118	12.49430621
555.313	12.52923053
555.509	12.58638276
555.704	12.60371767
555.899	12.63079342
556.095	12.67076022
556.29	12.7103599
556.486	12.68440495
556.681	12.69912096
556.876	12.69558893
557.071	12.72810507
557.267	12.81579385
557.462	12.83399022
557.657	12.86995488
557.853	12.91557956
558.048	12.90570737
558.243	12.93620467
558.438	12.93289274
558.633	12.94494598
558.829	13.04744196
559.024	13.09818005
559.219	13.10323136
559.414	13.13333472
559.609	13.07436618
559.804	13.07550513
559.999	13.1243394
560.194	13.24547227
560.39	13.2842908
560.585	13.4055917
560.78	13.50441698
560.975	13.64862181
561.17	13.81588137
561.365	13.84299778
561.56	14.00620953
561.755	14.0716762
561.95	14.20131845
562.145	14.36899631
562.34	14.52083761
562.535	14.71430465
562.729	14.86938545
562.924	15.0012503
563.119	15.09732695
563.314	15.15641848
563.509	15.21074521
563.704	15.53009306
563.899	15.69211191
564.093	15.81353963
564.288	15.8357888
564.483	15.97415814
564.678	16.06613641
564.873	16.2408396
565.067	16.26260623
565.262	16.1808786
565.457	16.31192581
565.652	16.42247061
565.846	16.45942589
566.041	16.57016828
566.236	16.63293776
566.43	16.69644701
566.625	16.75927063
566.82	16.9099117
567.014	16.94152457
567.209	17.12375545
567.404	17.39165694
567.598	17.49626941
567.793	17.60302922
567.987	17.75025784
568.182	17.84899231
568.376	18.00357426
568.571	18.12574209
568.765	18.34447844
568.96	18.31907838
569.154	18.41749261
569.349	18.5619243
569.543	18.74719406
569.738	18.81799144
569.932	19.00998542
570.127	19.20125927
570.321	19.34935169
570.515	19.43868013
570.71	19.58751238
570.904	19.70454713
571.098	19.83177353
571.293	19.91300011
571.487	20.01491606
571.681	20.22217837
571.876	20.36249692
572.07	20.48538563
572.264	20.68525437
572.458	20.84607982
572.653	21.02731348
572.847	21.18187919
573.041	21.34579106
573.235	21.53145865
573.43	21.71287294
573.624	21.86059685
573.818	22.07042277
574.012	22.23385934
574.206	22.37421698
574.4	22.57809085
574.594	22.74778543
574.788	22.93631025
574.983	23.12018761
575.177	23.31475184
575.371	23.54239899
575.565	23.74038591
575.759	23.91566705
575.953	24.07365623
576.147	24.26338022
576.341	24.42860072
576.535	24.60847992
576.729	24.75511816
576.923	24.94148634
577.117	25.18504825
577.31	25.40224433
577.504	25.60364716
577.698	25.81919289
577.892	26.00324995
578.086	26.20301718
578.28	26.39915969
578.474	26.59204025
578.668	26.82774436
578.861	27.04189939
579.055	27.22774495
579.249	27.42982541
579.443	27.60354641
579.636	27.78988699
579.83	27.98014906
580.024	28.16702191
580.218	28.35963329
580.411	28.52123419
580.605	28.71874659
580.799	28.93235166
580.992	29.12058777
581.186	29.2884844
581.38	29.45885726
581.573	29.64219035
581.767	29.81924045
581.961	30.02402049
582.154	30.22125874
582.348	30.445027
582.541	30.67264351
582.735	30.90935744
582.928	31.14246243
583.122	31.40881792
583.315	31.65287773
583.509	31.91668068
583.702	32.20493567
583.896	32.4798617
584.089	32.78200687
584.283	33.06599817
584.476	33.38275663
584.67	33.668898
584.863	33.97723197
585.056	34.28531371
585.25	34.58239963
585.443	34.8890823
585.636	35.19678389
585.83	35.49897719
586.023	35.7991867
586.216	36.0941641
586.41	36.36717996
586.603	36.65650985
586.796	36.93165076
586.989	37.20186357
587.183	37.48110574
587.376	37.76309504
587.569	38.05924441
587.762	38.33115155
587.955	38.60833205
588.149	38.86759013
588.342	39.1430291
588.535	39.41483061
588.728	39.68225082
588.921	39.94451568
589.114	40.21787286
589.307	40.53344465
589.5	40.8548658
589.693	41.1888719
589.886	41.51607204
590.08	41.8505291
590.273	42.21936253
590.466	42.56161718
590.659	42.91901496
590.852	43.26731182
591.044	43.62518055
591.237	43.9787472
591.43	44.36229651
591.623	44.72040566
591.816	45.05277146
592.009	45.43694817
592.202	45.80428775
592.395	46.1707566
592.588	46.52881253
592.781	46.91732789
592.973	47.3085667
593.166	47.64027687
593.359	47.97995167
593.552	48.32271761
593.745	48.62455157
593.937	48.95787696
594.13	49.22964442
594.323	49.55438141
594.515	49.89090845
594.708	50.17116325
594.901	50.4678489
595.094	50.80759025
595.286	51.09531246
595.479	51.3952225
595.672	51.67528557
595.864	51.98194367
596.057	52.24439657
596.249	52.53929798
596.442	52.84034952
596.635	53.12872627
596.827	53.39686465
597.02	53.63508082
597.212	53.95009245
597.405	54.25895268
597.597	54.51523141
597.79	54.82112465
597.982	55.13143611
598.175	55.49498194
598.367	55.7828445
598.559	56.10691458
598.752	56.44171608
598.944	56.79613657
599.137	57.10903747
599.329	57.43772741
599.521	57.75427226
599.714	58.06842414
599.906	58.48092247
600.098	58.85191863
600.291	59.28750052
600.483	59.76361754
600.675	60.20937263
600.868	60.70456328
601.06	61.2311627
601.252	61.70513505
601.444	62.17039674
601.637	62.59536718
601.829	63.00025051
602.021	63.29883877
602.213	63.6316498
602.405	63.90450206
602.597	64.15019117
602.789	64.35744686
602.982	64.50330596
603.174	64.66441126
603.366	64.85047637
603.558	64.96826283
603.75	65.11318003
603.942	65.20208939
604.134	65.29266994
604.326	65.38377521
604.518	65.45706762
604.71	65.51885738
604.902	65.5791804
605.094	65.6406541
605.286	65.70331197
605.478	65.75912035
605.67	65.81796076
605.862	65.85329905
606.054	65.91197607
606.246	65.94579877
606.437	65.99646577
606.629	66.020092
606.821	66.03809035
607.013	66.09147652
607.205	66.12466039
607.397	66.14391618
607.588	66.19572607
607.78	66.21746127
607.972	66.24723955
608.164	66.26503275
608.355	66.28639966
608.547	66.30592862
608.739	66.34020241
608.93	66.35988293
609.122	66.3655609
609.314	66.38493277
609.505	66.38326448
609.697	66.38503708
609.889	66.40523856
610.08	66.42718396
610.272	66.45214603
610.463	66.44384513
610.655	66.46961919
610.847	66.4824319
611.038	66.48439365
611.23	66.50172548
611.421	66.49801764
611.613	66.49237431
611.804	66.49916193
611.996	66.49451716
612.187	66.50525354
612.379	66.50359327
612.57	66.52073394
612.761	66.5351821
612.953	66.55231721
613.144	66.57946867
613.336	66.58733263
613.527	66.62800349
613.718	66.64971626
613.91	66.65674185
614.101	66.65193816
614.292	66.66038554
614.483	66.69136888
614.675	66.69821817
614.866	66.74066337
615.057	66.76165955
615.248	66.77196263
615.44	66.800326
615.631	66.8247174
615.822	66.84652697
616.013	66.88038084
616.204	66.91701519
616.396	66.94726698
616.587	66.96259727
616.778	67.00170795
616.969	67.04041583
617.16	67.06360859
617.351	67.10984559
617.542	67.11470758
617.733	67.16642595
617.924	67.20743746
618.115	67.27484987
618.306	67.30367783
618.497	67.34526977
618.688	67.4050573
618.879	67.46617969
619.07	67.51996699
619.261	67.58638707
619.452	67.64471619
619.643	67.69734417
619.834	67.76677851
620.025	67.83951211
620.216	67.92311172
620.407	68.0117726
620.597	68.12415672
620.788	68.18929105
620.979	68.29918534
621.17	68.39796233
621.361	68.48732441
621.551	68.5980633
621.742	68.67272279
621.933	68.79850043
622.124	68.89554868
622.314	68.99809294
622.505	69.10296259
622.696	69.16943114
622.886	69.23275334
623.077	69.32281371
623.268	69.41599205
623.458	69.51498548
623.649	69.5955483
623.84	69.67339941
624.03	69.7765527
624.221	69.86488054
624.411	69.94070763
624.602	69.98877994
624.792	70.03720755
624.983	70.05897277
625.173	70.11169271
625.364	70.17484084
625.554	70.23859869
625.745	70.28236285
625.935	70.36154925
626.126	70.43467658
626.316	70.49912527
626.507	70.52772703
626.697	70.60347901
626.887	70.64459234
627.078	70.66692865
627.268	70.71657128
627.458	70.77191396
627.649	70.82886737
627.839	70.87281995
628.029	70.90610739
628.22	70.96814704
628.41	70.99089698
628.6	71.03416807
628.79	71.1062759
628.981	71.16122097
629.171	71.23210163
629.361	71.27944495
629.551	71.37714148
629.741	71.4800182
629.932	71.49440165
630.122	71.51081468
630.312	71.55683835
630.502	71.65267068
630.692	71.69647522
630.882	71.76871641
631.072	71.87435754
631.262	71.92576133
631.452	72.01246626
631.642	72.08034242
631.832	72.17880537
632.022	72.25131412
632.212	72.3100234
632.402	72.44438275
632.592	72.56813413
632.782	72.63702986
632.972	72.71171763
633.162	72.82041756
633.352	72.92171281
633.542	72.98861292
633.732	73.07862901
633.922	73.14355886
634.111	73.24849142
634.301	73.31349223
634.491	73.33975288
634.681	73.46091424
634.871	73.62547414
635.06	73.73298022
635.25	73.88108108
635.44	74.05107544
635.63	74.27887943
635.819	74.43559806
636.009	74.65032362
636.199	74.72541984
636.388	74.80018907
636.578	74.90657988
636.768	75.11403579
636.957	75.27336127
637.147	75.44865847
637.337	75.66615499
637.526	75.77212695
637.716	75.9281859
637.905	76.18148217
638.095	76.28363886
638.284	76.50582576
638.474	76.85057875
638.663	77.12432722
638.853	77.3187507
639.042	77.55689657
639.232	77.69653308
639.421	77.89144874
639.611	78.07926956
639.8	78.29758458
639.99	78.53690531
640.179	78.9853772
640.368	79.34748126
640.558	79.64334621
640.747	79.94836089
640.936	80.37271989
641.126	80.64330803
641.315	80.93350562
641.504	81.18710786
641.694	81.46947356
641.883	81.74142013
642.072	82.12532572
642.261	82.38651179
642.451	82.6166568
642.64	82.9073884
642.829	83.01857566
643.018	83.25566782
643.207	83.48214704
643.397	83.56185392
643.586	83.69675526
643.775	83.87266071
643.964	84.02319009
644.153	84.15218418
644.342	84.35156189
644.531	84.36822332
644.72	84.41958629
644.909	84.47883894
645.098	84.64881749
645.287	84.78710628
645.476	85.07294462
645.665	85.15500447
645.854	85.2740201
646.043	85.36590544
646.232	85.53527768
646.421	85.50488352
646.61	85.55253755
646.799	85.72304142
646.988	85.91711814
647.177	86.00341589
647.365	86.08153185
647.554	86.29391888
647.743	86.37407118
647.932	86.50544063
648.121	86.59458309
648.309	86.6142525
648.498	86.88007449
648.687	87.07199896
648.876	87.1765327
649.064	87.23757837
649.253	87.311728
649.442	87.35878682
649.63	87.49717881
649.819	87.61200073
650.008	87.7273996
650.196	87.75500084
650.385	87.9021876
650.574	87.99589428
650.762	87.97802589
650.951	87.9950974
651.139	88.13426484
651.328	88.27328147
651.516	88.16147722
651.705	88.32782295
651.893	88.43579311
652.082	88.45322517
652.27	88.58663943
652.459	88.62253892
652.647	88.79278998
652.836	88.96029135
653.024	89.0239994
653.213	89.142578
653.401	89.178757
653.589	89.33917342
653.778	89.50225111
653.966	89.54252294
654.154	89.64153713
654.343	89.77224034
654.531	89.87210539
654.719	90.1722946
654.908	90.39123287
655.096	90.47947882
655.284	90.50788964
655.472	90.71943641
655.661	90.76285289
655.849	90.87171273
656.037	90.94598614
656.225	90.99060988
656.413	90.90135847
656.601	90.90189189
656.79	91.08281746
656.978	91.32275548
657.166	91.56173033
657.354	91.85815258
657.542	91.82324516
657.73	91.86391195
657.918	92.01909276
658.106	92.24298302
658.294	92.26579049
658.482	92.49364388
658.67	92.42437842
658.858	92.41254113
659.046	92.57910848
659.234	92.82204795
659.422	92.81961965
659.61	92.99605875
659.798	93.12002062
659.986	93.27510529
660.173	93.48110608
660.361	93.80856419
660.549	93.82848851
660.737	93.81892248
660.925	93.73480074
661.113	93.67802734
661.3	93.65100202
661.488	93.82443495
661.676	93.86795215
661.864	94.01525398
662.051	93.84128443
662.239	94.03871947
662.427	93.84936058
662.614	94.02228641
662.802	94.07034345
662.99	94.04918897
663.177	94.17545683
663.365	94.2945445
663.553	94.37367284
663.74	94.44684223
663.928	94.56370004
664.115	94.62100223
664.303	94.72640993
664.49	94.85318802
664.678	95.07148037
664.866	95.20206167
665.053	95.38570942
665.24	95.5328045
665.428	95.69889067
665.615	95.84392185
665.803	95.84815966
665.99	96.06661431
666.178	96.07479808
666.365	96.24758978
666.552	96.17634529
666.74	96.29311882
666.927	96.57175483
667.114	96.59382033
667.302	96.82237791
667.489	96.91881698
667.676	96.91355717
667.864	96.80517553
668.051	96.74087111
668.238	96.79652333
668.425	96.9978207
668.613	96.84928513
668.8	96.98618514
668.987	96.90787518
669.174	96.80799987
669.361	96.83021429
669.548	96.72293343
669.736	96.70983225
669.923	96.90463935
670.11	97.00928436
670.297	97.23938326
670.484	97.4938297
670.671	97.63905327
670.858	97.46041869
671.045	97.37806473
671.232	97.30281105
671.419	97.21334265
671.606	97.16168645
671.793	97.54710528
671.98	97.42461557
672.167	97.31693803
672.354	97.29174223
672.541	97.53115136
672.728	97.55184387
672.915	97.32241375
673.101	97.22943156
673.288	97.16556357
673.475	97.32962356
673.662	97.43408786
673.849	97.43169534
674.035	97.55751191
674.222	97.47647621
674.409	97.51335975
674.596	97.61824826
674.783	97.74339944
674.969	98.01083425
675.156	98.19513874
675.343	98.41125445
675.529	98.59643213
675.716	98.7356985
675.903	99.21068455
676.089	99.57673158
676.276	99.72255939
676.462	99.5888828
676.649	99.54255878
676.836	99.67306443
677.022	99.90581534
677.209	100.00226327
677.395	99.86585163
677.582	99.97190246
677.768	99.95527666
677.955	99.87693297
678.141	99.90989184
678.328	100.04568706
678.514	99.91090573
678.701	99.99151461
678.887	99.95073104
679.073	100.00311156
679.26	100.19522069
679.446	100.16451085
679.632	100.04121028
679.819	100.1471674
680.005	100.15015641
680.191	100.06780597
680.378	100.20843389
680.564	100.34253826
680.75	100.65258255
680.936	100.63035408
681.123	100.60882659
681.309	100.80991709
681.495	100.94674665
681.681	101.02757243
681.867	101.07610833
682.054	101.27261516
682.24	101.14227781
682.426	101.1368567
682.612	101.12684614
682.798	101.11893401
682.984	101.29023016
683.17	101.02509304
683.356	101.12815351
683.542	101.08383762
683.728	100.94994469
683.914	100.8595476
684.1	100.94444406
684.286	100.90301868
684.472	100.83805848
684.658	100.6598556
684.844	100.55312541
685.03	100.60649745
685.216	100.52038848
685.402	100.60830117
685.588	100.73012003
685.774	100.84465517
685.96	100.58836873
686.145	100.74480403
686.331	100.89224708
686.517	100.92746814
686.703	100.92260162
686.889	100.79711153
687.074	100.85250079
687.26	100.91494916
687.446	101.07440648
687.631	101.01722589
687.817	100.91571764
688.003	101.11109208
688.189	101.24645026
688.374	101.38548433
688.56	101.28971572
688.745	101.63523712
688.931	101.9311163
689.117	102.0466513
689.302	102.00750702
689.488	101.92053775
689.673	101.99658763
689.859	102.14518964
690.044	102.31843692
690.23	102.25852942
690.415	102.40489461
690.601	102.44541282
690.786	102.28893867
690.972	102.36636813
691.157	102.46346339
691.343	102.46604242
691.528	102.41751
691.713	102.52569356
691.899	102.06672782
692.084	102.06684648
692.269	102.02875971
692.455	102.06333695
692.64	101.73037217
692.825	101.58303391
693.011	101.84876052
693.196	101.72078924
693.381	101.65120821
693.566	101.55585011
693.752	101.68320224
693.937	101.5103957
694.122	101.68635811
694.307	101.68634473
694.492	101.72987742
694.678	101.94016433
694.863	101.84076922
695.048	101.56223875
695.233	100.98909493
695.418	101.51396889
695.603	101.62197904
695.788	102.05179731
695.973	101.95400319
696.158	102.02384999
696.343	102.31090867
696.528	102.42547797
696.713	102.3733275
696.898	102.02602613
697.083	101.99522489
697.268	101.83099765
697.453	101.7705157
697.638	101.55242002
697.823	101.58393539
698.008	101.44515104
698.192	101.5062756
698.377	101.76122575
698.562	101.87694564
698.747	101.96727613
698.932	102.12979964
699.117	102.50855492
699.301	102.4088001
699.486	102.524182
699.671	102.95629195
699.856	102.91338391
700.04	102.98963675
700.225	102.91534171
700.41	102.85293343
700.594	102.83728455
700.779	103.06926783
700.964	103.21801637
701.148	103.32619923
701.333	103.40400528
701.517	103.3666207
701.702	103.17533196
701.887	103.3081319
702.071	103.11163392
702.256	103.00383321
702.44	102.87542722
702.625	102.94325383
702.809	102.90323508
702.994	102.88642583
703.178	102.86407121
703.362	102.93575605
703.547	102.59448341
703.731	102.57947981
703.916	102.58548987
704.1	102.62127231
704.284	102.64761774
704.469	102.58471682
704.653	102.42098883
704.837	102.36415518
705.022	102.39128093
705.206	102.21729439
705.39	102.29408648
705.575	102.33745405
705.759	102.20206214
705.943	102.35947619
706.127	102.41262396
706.311	102.48002657
706.496	102.46285698
706.68	102.48400545
706.864	102.46903208
707.048	102.49657788
707.232	102.45298991
707.416	102.60645152
707.6	102.73386584
707.785	102.64817106
707.969	102.58966059
708.153	102.58603641
708.337	102.6373786
708.521	102.64780581
708.705	102.68256075
708.889	102.65436749
709.073	102.74169299
709.257	102.92621311
709.441	102.96430485
709.624	103.06067205
709.808	103.11031243
709.992	103.0131034
710.176	103.07993121
710.36	103.05866562
710.544	103.02961479
710.728	103.08675353
710.912	103.11051706
711.095	103.13335413
711.279	103.03831825
711.463	103.03958487
711.647	103.16796063
711.83	103.27800736
712.014	103.39325127
712.198	103.38924613
712.382	103.51893155
712.565	103.30217197
712.749	103.25442042
712.933	103.233199
713.116	102.87972149
713.3	103.05130949
713.483	102.95012144
713.667	102.75757568
713.851	102.98683157
714.034	102.93063412
714.218	102.8765275
714.401	102.90617606
714.585	102.79274703
714.768	102.79057192
714.952	102.53958228
715.135	102.58430181
715.319	102.31991246
715.502	101.96117625
715.686	101.76027519
715.869	101.61722158
716.052	101.66379028
716.236	101.59113824
716.419	101.70458677
716.602	101.99692227
716.786	102.11539192
716.969	102.71803288
717.152	102.30215827
717.336	101.98292835
717.519	101.77759713
717.702	101.42874597
717.885	101.38386155
718.069	101.82340955
718.252	101.53287959
718.435	101.73883487
718.618	101.50530924
718.801	102.4746161
718.985	102.88464567
719.168	102.97460674
719.351	102.26580955
719.534	102.59121701
719.717	103.44135063
719.9	102.80130907
720.083	102.6875448
720.266	102.85550946
720.449	102.40013201
720.632	103.74825962
720.815	103.22148518
720.998	103.21412628
721.181	104.61063652
721.364	104.5512274
721.547	105.25801581
721.73	105.0262606
721.913	104.10422865
722.096	103.41466101
722.279	102.59513967
722.461	102.57576039
722.644	100.61743141
722.827	99.6437253
723.01	98.66210847
723.193	100.29074644
723.376	99.91000956
723.558	99.37395109
723.741	100.05311178
723.924	99.03728635
724.107	99.50711835
724.289	99.12948857
724.472	98.28868057
724.655	98.44635177
724.837	99.71683854
725.02	98.47152072
725.203	97.81293011
725.385	96.49208466
725.568	95.68348029
725.75	95.56274379
725.933	96.6950899
726.115	96.76946228
726.298	96.40789954
726.481	96.28191006
726.663	95.97150385
726.845	96.14185276
727.028	96.89483718
727.21	95.88130308
727.393	95.5831608
727.575	95.00149716
727.758	95.29096556
727.94	95.35348999
728.122	95.03553447
728.305	95.95483885
728.487	95.07648284
728.67	95.78938504
728.852	96.62062948
729.034	95.66845721
729.216	95.80470472
729.399	96.09204822
729.581	94.97897231
729.763	94.06457639
729.945	94.38495303
730.128	94.09845852
730.31	95.52113223
730.492	95.48056514
730.674	95.10684825
730.856	93.66695907
731.039	94.16165405
731.221	93.50028675
731.403	93.62261532
731.585	93.15378594
731.767	91.77996366
731.949	91.2992118
732.131	89.55598882
732.313	88.98453723
732.495	87.63920047
732.677	87.43798975
732.859	88.84774733
733.041	87.74246389
733.223	88.13603479
733.405	88.09385224
733.587	89.11035878
733.769	89.45676121
733.951	89.251906
734.132	89.51992105
734.314	89.93108507
734.496	89.79255206
734.678	90.06405966
734.86	90.12788016
735.042	89.50021796
735.223	88.41238285
735.405	89.34821013
735.587	89.09812798
735.769	89.36229984
735.95	89.47465745
736.132	90.16066803
736.314	90.85406376
736.495	90.1585996
736.677	89.78338643
736.859	90.2451093
737.04	89.90604213
737.222	91.13054556
737.403	92.00399456
737.585	91.1745087
737.767	91.43173118
737.948	89.82644921
738.13	89.95762641
738.311	90.94197513
738.493	90.78633306
738.674	91.14312746
738.856	91.44459795
739.037	92.85796795
739.219	91.61982959
739.4	92.56278436
739.581	93.45783778
739.763	94.00329167
739.944	93.71989413
740.125	93.0959172
740.307	92.95443108
740.488	92.94106177
740.669	93.69400245
740.851	93.50852624
741.032	93.1398679
741.213	90.91804538
741.395	90.63287287
741.576	90.94676877
741.757	90.7706602
741.938	90.22312304
742.119	89.34816356
742.301	89.89319251
742.482	90.62056707
742.663	91.41486233
742.844	90.9057598
743.025	92.29009664
743.206	92.34850501
743.387	91.872645
743.568	91.47847088
743.749	91.56541676
743.93	91.42967301
744.111	92.68871832
744.292	93.68455919
744.473	93.56195225
744.654	94.1580438
744.835	94.93604705
745.016	96.24574014
745.197	95.75861878
745.378	95.13049894
745.559	95.92972236
745.74	95.5179339
745.921	95.36010684
746.102	94.86003815
746.282	95.27012452
746.463	95.01047643
746.644	96.53778663
746.825	96.95159961
747.006	97.2765546
747.186	97.11524826
747.367	95.84490384
747.548	95.29382624
747.728	92.71725952
747.909	92.38182462
748.09	91.08070551
748.27	91.8794349
748.451	91.51161534
748.632	90.33468538
748.812	90.35953821
748.993	91.17811528
749.173	90.85207074
749.354	92.14764949
749.535	93.07593482
749.715	94.36237359
749.896	94.87097729
750.076	92.79448202
750.257	91.95952782
750.437	90.97520884
750.618	90.83874687
750.798	91.40276465
750.978	90.71151868
751.159	92.29807671
751.339	91.5997801
751.52	93.91641647
751.7	93.73149169
751.88	95.9300944
752.061	95.07694942
752.241	95.50115493
752.421	95.82353576
752.601	95.44169236
752.782	94.35343471
752.962	95.16971006
753.142	95.11713415
753.322	94.47446946
753.503	94.63204544
753.683	95.37499739
753.863	97.14952387
754.043	97.5672456
754.223	96.92508034
754.403	97.70274535
754.583	96.31422904
754.764	96.37092429
754.944	96.6712296
755.124	98.5777071
755.304	97.81712886
755.484	98.14391453
755.664	96.88545864
755.844	97.35274653
756.024	98.08954117
756.204	98.4123609
756.384	98.17242938
756.564	100.39610656
756.743	100.00979072
756.923	98.86073176
757.103	98.85527802
757.283	98.31007553
757.463	97.00343572
757.643	94.86817695
757.823	94.94034174
758.002	94.68947132
758.182	91.90748372
758.362	91.87634599
758.542	90.93722251
758.721	89.60700822
758.901	88.11487521
759.081	88.51804579
759.261	87.91706714
759.44	87.7365507
759.62	86.21501219
759.8	85.88710809
759.979	85.76306949
760.159	84.84059675
760.338	83.25800747
760.518	83.69299159
760.698	83.98139482
760.877	85.50084598
761.057	83.94763057
761.236	84.60617463
761.416	86.97218619
761.595	86.82742071
761.775	87.40377073
761.954	88.29541804
762.133	89.98365029
762.313	91.17313563
762.492	91.7546155
762.672	92.83923674
762.851	93.78079363
763.03	92.92415836
763.21	93.5301022
763.389	94.5149008
763.568	95.8987612
763.748	96.75989952
763.927	99.15033958
764.106	98.74175319
764.286	99.10880887
764.465	98.03038357
764.644	96.11382518
764.823	99.48653551
765.002	99.29685538
765.182	98.44336345
765.361	98.6195091
765.54	98.10713401
765.719	98.39128888
765.898	97.55422116
766.077	96.48941662
766.256	97.73931473
766.435	96.96700815
766.614	97.29168353
766.793	98.64240092
766.972	98.41300035
767.151	97.55052051
767.33	95.09260977
767.509	93.35191601
767.688	93.18923878
767.867	94.15758297
768.046	93.19298059
768.225	93.18774008
768.404	93.88194057
768.583	91.7431921
768.762	89.58370785
768.94	89.18670781
769.119	89.6190063
769.298	89.20776589
769.477	88.35530204
769.656	89.04630891
769.834	89.97688972
770.013	87.50096206
770.192	87.92135552
770.37	87.79427278
770.549	87.69813106
770.728	86.27943729
770.906	85.91422122
771.085	87.35228704
771.264	87.10414005
771.442	85.79687954
771.621	84.03955917
771.799	85.28842842
771.978	86.25950183
772.157	84.42164426
772.335	84.92544824
772.514	86.4958619
772.692	85.55093837
772.871	84.26453192
773.049	85.20773936
773.228	85.77362124
773.406	83.56610169
773.584	83.22404518
773.763	85.03248444
773.941	84.44669273
774.119	83.57967477
774.298	83.08706769
774.476	84.22268736
774.655	83.49237419
774.833	84.53429005
775.011	85.97433101
775.189	85.87452308
775.368	87.76111641
775.546	86.02096855
775.724	83.96016098
775.902	86.2413641
776.08	86.59679593
776.259	87.23492847
776.437	87.07631555
776.615	88.53445952
776.793	86.09429131
776.971	85.49145366
777.149	87.32159173
777.327	88.11661389
777.505	86.13498117
777.683	86.80072523
777.861	85.248392
778.04	86.62853762
778.218	84.13497695
778.395	85.57884723
778.573	81.65482793
778.751	81.08962864
778.929	80.85485596
779.107	80.65888049
779.285	78.5606085
779.463	79.15326725
779.641	79.20384577
779.819	78.8106406
779.997	77.69814918
780.174	80.38193872
780.352	80.59617361
780.53	80.27512394
780.708	81.03973532
780.886	80.42444321
781.063	79.55148917
781.241	80.72646405
781.419	80.69610997
781.596	83.44200354
781.774	81.36425363
781.952	85.09094808
782.129	85.82318725
782.307	87.0235562
782.485	87.19500873
782.662	88.22048446
782.84	88.51453051
783.017	93.63022089
783.195	94.78226601
783.372	95.81627275
783.55	96.12665986
783.727	98.43382929
783.905	96.74065272
784.082	96.0540611
784.26	99.00013391
784.437	96.73211465
784.615	97.48071745
784.792	100.98213856
784.969	101.07875943
785.147	101.97829927
785.324	102.72068017
785.501	102.48190279
785.679	102.07346857
785.856	103.14912945
786.033	104.04814542
786.211	104.60483508
786.388	104.5483887
786.565	103.90470892
786.742	102.87278389
786.92	103.90113009
787.097	101.36197486
787.274	103.70313223
787.451	101.94815078
787.628	101.86306474
787.805	102.45437055
787.982	101.76274661
788.16	103.47428096
788.337	103.4268401
788.514	100.12185834
788.691	100.44909416
788.868	98.12655908
789.045	93.05169247
789.222	94.12497968
789.399	91.67340775
789.576	88.57319016
789.753	88.30080666
789.93	88.10783055
790.106	85.70777873
790.283	85.36706596
790.46	84.75008756
790.637	83.67466641
790.814	82.91258191
790.991	81.69433372
791.168	81.75482395
791.344	80.14604504
791.521	77.25148348
791.698	78.16447119
791.875	79.09662173
792.051	80.4389261
792.228	80.24104199
792.405	80.31956969
792.581	82.87855597
792.758	85.38707479
792.935	84.85706928
793.111	83.09280468
793.288	84.52450641
793.465	80.91021973
793.641	81.40415461
793.818	83.42829757
793.994	81.90748637
794.171	79.43099883
794.347	82.40321193
794.524	82.78921815
794.7	81.73505921
794.877	78.86606593
795.053	79.21357662
795.23	81.26110603
795.406	82.05309927
795.583	83.18391893
795.759	78.55615853
795.935	80.94483734
796.112	80.92709115
796.288	78.0856568
796.464	80.67755526
796.641	84.03654011
796.817	85.3677491
796.993	86.7833064
797.169	88.16656841
797.346	89.08906082
797.522	89.53990919
797.698	89.89017918
797.874	89.05396436
798.051	84.5869728
798.227	83.56246563
798.403	85.06693609
798.579	86.02594047
798.755	87.44983583
798.931	87.14575425
799.107	91.23815442
799.283	90.94746478
799.459	94.87639028
799.635	96.15282427
799.811	96.40524583
799.987	93.24624361
800.163	90.46988749
800.339	89.60028661
800.515	91.93960133
800.691	91.96363432
800.867	91.03647813
801.043	88.13494029
801.219	88.83659117
801.395	91.90676211
801.571	95.32660648
801.746	100.5320757
801.922	104.85944011
802.098	102.32112553
802.274	105.62782648
802.45	103.14679813
802.625	103.78094524
802.801	100.05801866
802.977	94.05447048
803.152	93.4420465
803.328	92.25449516
803.504	92.64650834
803.679	96.23443162
803.855	93.90888288
804.031	93.82711022
804.206	93.41384801
804.382	92.39201008
804.557	92.645432
804.733	94.25123929
804.909	96.00966888
805.084	94.88240828
805.26	94.21551629
805.435	92.76191883
805.61	92.28393885
805.786	91.70058886
805.961	88.59879863
806.137	91.65036919
806.312	90.95529675
806.488	90.35967102
806.663	93.57436675
806.838	92.32346142
807.014	90.41752225
807.189	89.89697574
807.364	88.10711346
807.54	91.63736211
807.715	91.54465044
807.89	91.82268579
808.065	94.16653599
808.241	96.28423469
808.416	94.16168471
808.591	88.37614524
808.766	91.67581941
808.941	89.73863705
809.116	89.84605718
809.291	84.13938889
809.467	86.43016119
809.642	89.40159114
809.817	84.15266542
809.992	83.43375791
810.167	82.65360371
810.342	84.76015607
810.517	81.03302286
810.692	81.42934909
810.867	79.59781185
811.042	76.3171545
811.217	71.24814844
811.392	74.99026707
811.567	76.84327235
811.741	74.76438975
811.916	74.71355196
812.091	75.0467062
812.266	78.32709114
812.441	71.27450141
812.616	71.19772707
812.79	71.22426122
812.965	75.47414913
813.14	75.17264331
813.315	71.81543769
813.489	74.54953013
813.664	73.02940942
813.839	71.8203465
814.013	67.79393436
814.188	72.16541489
814.363	72.06733767
814.537	74.13022522
814.712	78.16934946
814.887	83.53925479
815.061	79.29308101
815.236	77.06487422
815.41	71.84247237
815.585	69.29610362
815.759	71.86014577
815.934	70.76059214
816.108	72.04584643
816.283	73.65964949
816.457	76.41118853
816.631	74.64979229
816.806	68.02425467
816.98	67.64848838
817.155	72.42342612
817.329	72.34578722
817.503	74.62733904
817.678	79.1522763
817.852	81.15811581
818.026	83.17813157
818.201	84.02536914
818.375	87.84928439
818.549	85.10256168
818.723	83.17704948
818.897	81.53000458
819.072	79.54190047
819.246	84.98357579
819.42	78.26202029
819.594	80.37851141
819.768	86.40129837
819.942	90.9744607
820.116	86.11987382
820.29	86.67634487
820.465	88.12428078
820.639	91.59295381
820.813	84.21712516
820.987	81.77906373
821.161	77.37510087
821.335	75.39573545
821.509	75.04128671
821.682	74.18035779
821.856	75.41850859
822.03	75.317759
822.204	77.666971
822.378	75.43735392
822.552	75.4731918
822.726	81.82214156
822.9	76.05543253
823.073	76.80017509
823.247	70.86894048
823.421	69.82025298
823.595	67.09777548
823.768	69.45454545
823.942	68.49835401
824.116	66.5495673
824.289	67.98643493
824.463	74.11026446
824.637	80.69560528
824.81	81.13514981
824.984	84.2230018
825.158	82.99466242
825.331	81.7970911
825.505	81.51557415
825.678	80.16174608
825.852	83.88434145
826.025	85.10569804
826.199	84.16748446
826.372	82.5710049
826.546	86.99305809
826.719	89.62035025
826.893	87.63371341
827.066	90.69767442
827.24	91.04050007
827.413	89.83797797
827.586	89.06340896
827.76	100.35700625
827.933	97.48984865
828.106	89.16122675
828.28	79.92168031
828.453	80.8446637
828.626	77.20455909
828.799	80.10666005
828.973	83.60955239
829.146	81.71113616
829.319	76.67870936
829.492	75.3635586
829.665	73.19215498
829.839	78.44282819
830.012	77.70142968
830.185	76.78794061
830.358	77.54073379
830.531	78.435366
830.704	72.37851662
830.877	66.86782629
831.05	62.47325149
831.223	65.65900846
831.396	62.78958108
831.569	57.69277474
831.742	57.74420482
831.915	63.72948434
832.088	71.64901268
832.261	72.95804288
832.434	68.93006727
832.607	67.00917934
832.779	70.16210013
832.952	83.13080772
833.125	78.8380041
833.298	86.217657
833.471	80.81356831
833.643	72.96939181
833.816	70.65398946
833.989	74.22999328
834.162	90.72267006
834.334	83.72241357
834.507	83.37346344
834.68	85.71938593
834.852	85.65391205
835.025	83.96830945
835.198	89.73726409
835.37	89.6926587
835.543	90.62213491
835.715	84.35411417
835.888	84.3871975
836.061	91.12489562
836.233	95.43475703
836.406	88.66933181
836.578	84.94549627
836.751	82.20290518
836.923	87.9089439
837.095	97.1160036
837.268	104.41761911
837.44	103.34357714
837.613	106.26841051
837.785	93.56146417
837.957	100.8539026
838.13	105.78500904
838.302	108.65076043
838.474	107.30409777
838.647	104.79400749
838.819	100.48492196
838.991	102.16216216
839.163	101.68460459
839.336	100.53040349
839.508	102.32776422
839.68	96.41222771
839.852	95.87916885
840.024	88.71513784
840.196	87.95986622
840.368	92.26995689
840.541	78.70700728
840.713	61.25721616
840.885	61.41549392
841.057	62.46095342
841.229	54.57936179
841.401	55.62138145
841.573	59.94810709
841.745	63.43956705
841.917	66.11682996
842.089	66.62969809
842.261	70.18153727
842.432	70.39989372
842.604	66.41702799
842.776	68.62444018
842.948	71.85129927
843.12	71.70232314
843.292	72.29129663
843.464	65.36749831
843.635	73.03740238
843.807	69.42046856
843.979	67.36794309
844.151	74.88953223
844.322	86.82063125
844.494	81.39404945
844.666	81.09833972
844.837	87.4522209
845.009	86.9428062
845.181	85.46402201
845.352	86.59779422
845.524	83.84071563
845.695	79.2674499
845.867	75.56548828
846.039	75.15075025
846.21	81.97607734
846.382	81.26156913
846.553	81.89591626
846.725	84.29113758
846.896	86.74970187
847.068	83.12147818
847.239	76.29340399
847.41	73.84344051
847.582	73.63672028
847.753	68.57332449
847.925	66.31807687
848.096	68.11719087
848.267	65.32179255
848.439	61.50449216
848.61	67.44252463
848.781	66.07483492
848.952	64.57605811
849.124	77.6445993
849.295	80.10241405
849.466	80.45887311
849.637	86.6977467
849.808	87.97159961
849.98	91.34476679
850.151	97.80609776
850.322	98.03743413
850.493	96.18555035
850.664	114.05840182
850.835	134.46203166
851.006	117.99476896
851.177	122.01642495
851.348	118.62249346
851.519	122.37136465
851.69	125.75452716
851.861	132.83162753
852.032	128.35042274
852.203	137.84111583
852.374	143.71116349
852.545	163.95080707
852.716	143.61621758
852.887	143.28676296
853.057	143.24088229
853.228	142.40081384
853.399	136.52810683
853.57	125.40757993
853.741	116.8385603
853.911	121.41568077
854.082	121.200453
854.253	99.55348837
854.424	98.62093994
854.594	113.3735779
854.765	120.32543534
854.936	154.37875435
855.106	130.64472619
855.277	128.21909951
855.447	123.60338573
855.618	129.43767815
855.789	119.44963933
855.959	116.79790026
856.13	103.55520442
856.3	89.91270611
856.471	87.8140455
856.641	88.49606155
856.812	76.00149059
856.982	76.74150835
857.153	80.74740755
857.323	88.48762603
857.493	83.6640339
857.664	94.78497762
857.834	91.09637698
858.004	82.5905001
858.175	88.92385148
858.345	72.67178578
858.515	60.44711952
858.686	59.6214511
858.856	55.62463571
859.026	58.85189437
859.196	45.35974974
859.367	58.00479198
859.537	48.3678259
859.707	46.70473471
859.877	56.8296796
860.047	54.58054032
860.217	47.2896514
860.387	41.60379014
860.558	49.9921765
860.728	51.18745332
860.898	40.4443044
861.068	46.95399917
861.238	38.53415498
861.408	40.7290433
861.578	37.00703758
861.748	33.5395274
861.918	44.40294284
862.088	42.53558424
862.257	42.72496971
862.427	48.28072459
862.597	47.57772163
862.767	48.59146962
862.937	47.46281253
863.107	52.05188416
863.277	51.00782024
863.446	43.98955738
863.616	47.28197106
863.786	50.79194218
863.956	59.43412306
864.125	50.84087969
864.295	50.29859372
864.465	52.51525995
864.634	45.61996361
864.804	42.58921594
864.974	60.18099548
865.143	67.67946578
865.313	67.24409449
865.482	57.07317073
865.652	57.3042462
865.822	67.29786595
865.991	72.99634187
866.161	63.69477912
866.33	62.75668073
866.5	74.69975981
866.669	68.34694452
866.838	68.1387158
867.008	77.32008723
867.177	57.58939735
867.347	58.1769437
867.516	56.67774086
867.685	57.37774931
867.855	51.87326054
868.024	51.10862679
868.193	48.7847498
868.363	48.86928629
868.532	43.94092949
868.701	56.84195443
868.87	54.04848677
869.04	59.66172012
869.209	60.2480714
869.378	54.65207193
869.547	47.171021
869.716	47.43567605
869.885	48.20759765
870.055	23.90243902
870.224	23.35078534
870.393	12.12053069
870.562	15.42657648
870.731	38.30493472
870.9	40.71774976
871.069	37.46466623
871.238	46.04606982
871.407	51.36375223
871.576	61.23229143
871.745	66.44040185
871.914	55.29599151
872.083	61.00247866
872.251	40.87131705
872.42	53.00376857
872.589	47.47279323
872.758	50.15367421
872.927	63.74592016
873.096	70.61021171
873.264	75.94448728
873.433	80.91584752
873.602	94.48402666
873.771	98.55165069
873.939	100.07430801
874.108	97.56792704
874.277	80.56045463
874.445	69.66105712
874.614	73.96506341
874.783	80.72076056
874.951	87.54800889
875.12	84.60296097
875.288	67.61651132
875.457	92.77978339
875.625	79.43559654
875.794	76.29436666
875.962	97.97614745
876.131	106.18927672
876.299	102.38734706
876.468	92.06086669
876.636	72.77361319
876.805	73.01541146
876.973	62.79642747
877.141	68.07449285
877.31	60.09834914
877.478	53.30553901
877.647	82.54545455
877.815	139.37304075
877.983	145.12506381
878.151	131.22824465
878.32	102.27401933
878.488	80.66766318
878.656	83.27683616
878.824	93.93730623
878.992	86.5589111
879.161	108.88523241
879.329	104.48965275
879.497	84.00581607
879.665	56.34819533
879.833	36.38382941
880.001	8.90136327
880.169	43.49442379
880.337	35.04702194
880.505	84.88284203
880.673	47.85954786
880.841	51.72687574
881.009	54.18047882
881.177	49.85270049
881.345	38.44244493
881.513	36.75659994
881.681	51.84719779
881.849	47.96254113
882.017	40.44665012
882.185	28.97780556
882.352	25.62522653
882.52	39.00748544
882.688	22.42424242
882.856	23.1612345
883.024	38.54779927
883.191	70.97383329
883.359	85.67203418
883.527	93.4531795
883.694	96.44940401
883.862	113.30609863
884.03	110.00255167
884.197	126.88076123
884.365	134.48986603
884.533	138.06430659
884.7	129.07337237
884.868	134.8399868
885.035	151.52032798
885.203	135.0877193
885.37	147.80590717
885.538	156.23434607
885.705	157.85848466
885.873	157.72130978
886.04	154.07497963
886.208	161.10565914
886.375	207.67407407
886.542	218.94940948
886.71	174.70355731
886.877	161.35374456
