Data from areia_Reflection_00001.txt Node
Date: Thu Apr 11 13:49:23 AEST 2024
User: uqkchene_local
Spectrometer: USB4E02642
Trigger mode: 4
Integration Time (sec): 2.541000E-2
Scans to average: 101
Electric dark correction enabled: true
Nonlinearity correction enabled: false
Boxcar width: 10
XAxis mode: Wavelengths
Number of Pixels in Spectrum: 3648
>>>>>Begin Spectral Data<<<<<
179.217	87.43446547
179.432	91.5767848
179.647	91.33406004
179.862	100.73878147
180.077	84.8028169
180.293	108.89380531
180.508	93.36744833
180.723	94.50511945
180.938	45.21863404
181.153	25.68328208
181.368	20.28456235
181.583	16.31800151
181.798	10.79327691
182.013	6.68243742
182.228	5.59026404
182.443	5.78268741
182.658	8.30119594
182.873	7.96325693
183.088	8.43827598
183.303	5.12044128
183.518	4.6930584
183.733	3.74466912
183.948	2.21947623
184.162	1.71175898
184.377	1.21609371
184.592	1.64737663
184.807	1.4603178
185.022	1.07596222
185.237	1.15084238
185.452	0.45499402
185.667	0.01090626
185.882	-0.82252285
186.096	-0.93459277
186.311	-0.83205888
186.526	-1.68097627
186.741	-2.52400349
186.956	-3.95340439
187.17	-5.84651728
187.385	-5.52926368
187.6	-5.73753686
187.815	-4.90473614
188.03	-5.20055791
188.244	-3.59326041
188.459	-2.88289931
188.674	-2.89716849
188.889	-3.25678074
189.103	-4.2914819
189.318	-4.44928707
189.533	-4.28742918
189.747	-4.62190175
189.962	-4.5244704
190.177	-4.09094436
190.391	-3.99465527
190.606	-4.56270643
190.821	-4.74487524
191.035	-4.71680711
191.25	-4.74575444
191.465	-4.9122478
191.679	-3.05500867
191.894	-4.31225926
192.109	-4.99803246
192.323	-4.81262153
192.538	-6.46544869
192.752	-7.46189776
192.967	-7.93481587
193.181	-8.71174122
193.396	-8.41713699
193.611	-7.74491062
193.825	-7.66655008
194.04	-7.50215801
194.254	-6.92930345
194.469	-6.76658098
194.683	-7.06212667
194.898	-6.672942
195.112	-7.69090758
195.327	-7.8058001
195.541	-7.20126819
195.756	-8.20850472
195.97	-6.34095945
196.184	-6.35989394
196.399	-5.9295883
196.613	-5.41344351
196.828	-6.48523083
197.042	-4.5992854
197.257	-3.94829023
197.471	-4.61249576
197.685	-4.23401859
197.9	-4.57868106
198.114	-3.743323
198.328	-4.31819869
198.543	-4.23900946
198.757	-5.15345149
198.971	-5.22230096
199.186	-3.83232382
199.4	-3.97544915
199.614	-3.44165047
199.829	-3.96733901
200.043	-4.0041713
200.257	-4.32222283
200.471	-5.72744471
200.686	-6.19783432
200.9	-5.5352989
201.114	-4.93524243
201.328	-4.49910981
201.543	-4.92893569
201.757	-5.64321403
201.971	-6.07438093
202.185	-5.26981136
202.399	-5.77132606
202.614	-6.75602837
202.828	-6.41982414
203.042	-5.59002985
203.256	-5.1527181
203.47	-5.08593852
203.684	-6.05694752
203.899	-6.80229491
204.113	-6.07136124
204.327	-5.55560763
204.541	-4.88418508
204.755	-2.90284141
204.969	-2.75558069
205.183	-1.960448
205.397	-2.4267997
205.611	-2.6314066
205.825	-2.26148115
206.039	-1.77961722
206.253	-1.77171858
206.467	-1.87094223
206.681	-2.2317836
206.895	-0.87051879
207.109	0.14987473
207.323	0.13337973
207.537	-0.41925801
207.751	0.58428397
207.965	1.01885535
208.179	1.18691555
208.393	1.34191509
208.607	0.18061271
208.821	0.34458522
209.035	0.48045632
209.249	-0.23975272
209.463	0.64414504
209.677	-0.71486854
209.891	-1.27522803
210.104	-2.94114956
210.318	-3.77634821
210.532	-3.22443726
210.746	-3.23256961
210.96	-1.72474243
211.174	-2.30122696
211.387	-2.32733547
211.601	-2.62917961
211.815	-3.08359421
212.029	-4.26200437
212.243	-5.26938828
212.456	-6.66688004
212.67	-7.42494966
212.884	-6.50985177
213.098	-5.77239333
213.311	-5.47325946
213.525	-6.25100542
213.739	-5.20093616
213.953	-5.86430715
214.166	-6.28886954
214.38	-5.85208975
214.594	-4.33787366
214.807	-3.05084597
215.021	-4.4168164
215.235	-5.00113851
215.448	-5.55128884
215.662	-5.76393368
215.876	-6.41711928
216.089	-6.65228038
216.303	-6.22114457
216.516	-5.19150644
216.73	-4.75941334
216.944	-2.89047763
217.157	-2.37552023
217.371	-2.50705095
217.584	-2.47164374
217.798	-3.54319069
218.011	-4.04075926
218.225	-5.66209072
218.439	-6.06913872
218.652	-5.85546458
218.866	-6.10923472
219.079	-6.38193443
219.293	-6.9039384
219.506	-5.52196436
219.719	-4.98669299
219.933	-4.89209557
220.146	-4.88831851
220.36	-4.16895959
220.573	-3.55479865
220.787	-3.89061021
221	-3.2389131
221.214	-3.15308748
221.427	-5.39593523
221.64	-6.24268009
221.854	-6.57060291
222.067	-6.09814844
222.28	-5.4277745
222.494	-5.40630975
222.707	-4.34352596
222.92	-3.98372105
223.134	-3.77643889
223.347	-3.92122765
223.56	-3.14110336
223.774	-3.39314749
223.987	-3.33179259
224.2	-3.49345891
224.414	-4.38385425
224.627	-2.75569665
224.84	-3.44330503
225.053	-3.25789037
225.267	-2.90038511
225.48	-3.99934718
225.693	-4.45570353
225.906	-2.92874495
226.119	-2.38513878
226.333	-2.53592805
226.546	-3.21111841
226.759	-4.10268004
226.972	-3.32900306
227.185	-3.89248041
227.398	-4.36462034
227.612	-4.51677336
227.825	-4.95931631
228.038	-5.55802448
228.251	-6.38383005
228.464	-7.18676666
228.677	-6.4537509
228.89	-4.66396292
229.103	-5.47638711
229.316	-5.33935321
229.529	-5.35663122
229.743	-5.35669155
229.956	-5.30530488
230.169	-5.09091373
230.382	-5.62732675
230.595	-4.88067476
230.808	-4.64082474
231.021	-4.57787087
231.234	-3.17814037
231.447	-3.1959464
231.66	-2.93973806
231.872	-2.41312262
232.085	-1.18794123
232.298	-0.94298783
232.511	-1.06635651
232.724	-0.97395197
232.937	-1.42016314
233.15	-2.17577418
233.363	-4.04058399
233.576	-4.31252479
233.789	-4.57025864
234.002	-4.68356646
234.214	-5.13547812
234.427	-4.92858336
234.64	-4.88938642
234.853	-4.59744812
235.066	-5.95214299
235.279	-6.72441485
235.491	-6.16731164
235.704	-6.60730509
235.917	-7.46512531
236.13	-7.44155932
236.342	-7.76288923
236.555	-8.7105853
236.768	-8.86749592
236.981	-8.98001701
237.193	-8.78619477
237.406	-8.3348906
237.619	-6.21117234
237.832	-5.50493954
238.044	-5.0872573
238.257	-4.74693402
238.47	-4.79608975
238.682	-4.5651719
238.895	-4.94601846
239.108	-3.21498652
239.32	-3.95771956
239.533	-3.2760139
239.746	-3.41233379
239.958	-4.09974408
240.171	-3.68653714
240.383	-3.69385251
240.596	-4.35647341
240.808	-4.15995851
241.021	-3.9870673
241.234	-3.67048386
241.446	-3.03538247
241.659	-2.63808263
241.871	-2.5669266
242.084	-4.62223228
242.296	-5.09127837
242.509	-6.3132308
242.721	-5.98160475
242.934	-6.02922073
243.146	-6.55147047
243.359	-5.96939017
243.571	-7.40440315
243.784	-6.92635012
243.996	-7.18970211
244.208	-6.42009462
244.421	-6.69675148
244.633	-6.81713405
244.846	-6.45881244
245.058	-5.93081449
245.27	-5.99902759
245.483	-6.12684239
245.695	-6.20120906
245.907	-6.19400618
246.12	-5.09900834
246.332	-5.70614139
246.544	-4.55265705
246.757	-4.15191591
246.969	-2.74179653
247.181	-2.06913789
247.394	-2.96614111
247.606	-2.23593531
247.818	-2.94633611
248.03	-3.18013904
248.243	-3.28141733
248.455	-4.1026019
248.667	-3.82488159
248.879	-3.78752833
249.092	-5.2028765
249.304	-4.79596277
249.516	-5.27431228
249.728	-5.3350173
249.94	-5.11837369
250.153	-5.00563167
250.365	-6.45189932
250.577	-6.4643099
250.789	-5.44103141
251.001	-6.13488142
251.213	-6.10448587
251.425	-5.88527545
251.637	-6.96020748
251.85	-5.67478761
252.062	-6.16044415
252.274	-5.6363123
252.486	-5.45191563
252.698	-5.42057998
252.91	-4.96622553
253.122	-5.43350168
253.334	-4.40389759
253.546	-3.84064994
253.758	-3.57768069
253.97	-3.47379807
254.182	-2.44750755
254.394	-3.36775983
254.606	-3.00072116
254.818	-2.12197292
255.03	-2.49147146
255.242	-3.4816994
255.454	-3.28420973
255.666	-3.36436653
255.877	-4.36122043
256.089	-4.89397955
256.301	-5.67184052
256.513	-5.60960236
256.725	-5.27712398
256.937	-5.20804766
257.149	-5.10929333
257.361	-4.06826773
257.572	-3.57016261
257.784	-3.66179654
257.996	-3.20506221
258.208	-4.31532986
258.42	-4.0629994
258.631	-5.37618942
258.843	-4.20938644
259.055	-4.41251868
259.267	-4.33130921
259.479	-4.89968067
259.69	-4.45377848
259.902	-5.18821521
260.114	-5.47866414
260.325	-4.9652888
260.537	-4.85608405
260.749	-5.30220839
260.961	-5.4664474
261.172	-6.44212253
261.384	-6.98653438
261.596	-6.76267936
261.807	-7.07186762
262.019	-7.19977377
262.23	-7.94816771
262.442	-8.66178706
262.654	-8.82719159
262.865	-8.04970811
263.077	-7.28180712
263.288	-8.02533979
263.5	-8.17512216
263.712	-8.67242399
263.923	-8.6535676
264.135	-9.00612814
264.346	-8.38799666
264.558	-8.53485633
264.769	-9.33303491
264.981	-9.1473824
265.192	-8.72719126
265.404	-8.58043539
265.615	-8.41269027
265.827	-8.07129492
266.038	-7.68008707
266.25	-7.95509522
266.461	-8.41138908
266.673	-8.3710063
266.884	-7.8405732
267.095	-6.33882868
267.307	-6.98975802
267.518	-7.47257053
267.73	-6.5571733
267.941	-6.48436077
268.152	-6.28987421
268.364	-6.12721751
268.575	-6.04604211
268.786	-5.75261654
268.998	-4.99389872
269.209	-4.9292608
269.42	-4.44259556
269.632	-4.18787984
269.843	-3.12930167
270.054	-2.16185889
270.265	-2.51319452
270.477	-2.6550666
270.688	-2.20624642
270.899	-1.61295512
271.11	-1.00201107
271.322	-0.95845932
271.533	-1.25027021
271.744	-1.2642751
271.955	-1.00720478
272.166	-1.40726263
272.378	-1.69623915
272.589	-0.97957229
272.8	-1.25673078
273.011	-1.43372712
273.222	-1.30937382
273.433	-1.53286379
273.644	-1.15548738
273.856	-1.48446223
274.067	-2.18660644
274.278	-3.10941968
274.489	-3.55231622
274.7	-4.22709128
274.911	-4.71314852
275.122	-4.83178713
275.333	-5.323702
275.544	-5.63042894
275.755	-5.29158011
275.966	-5.55693907
276.177	-6.18328253
276.388	-6.36657398
276.599	-5.887056
276.81	-5.46684195
277.021	-5.69209619
277.232	-5.22685071
277.443	-4.26520218
277.654	-4.42284648
277.865	-4.3404891
278.076	-5.23018343
278.287	-4.90175008
278.497	-3.85196283
278.708	-3.74678803
278.919	-3.73191464
279.13	-2.95453455
279.341	-2.84684029
279.552	-2.5601124
279.763	-2.15432099
279.973	-2.51131779
280.184	-2.6272449
280.395	-2.55306158
280.606	-1.75569635
280.817	-2.00486344
281.027	-2.3586275
281.238	-2.66898202
281.449	-2.91137247
281.66	-3.2515855
281.87	-4.04624445
282.081	-4.47901617
282.292	-3.97491349
282.503	-3.34867486
282.713	-2.92720711
282.924	-3.34578073
283.135	-2.73420786
283.345	-2.16252703
283.556	-1.89775519
283.767	-1.77209499
283.977	-2.01028921
284.188	-2.30422538
284.399	-1.79191673
284.609	-1.83723342
284.82	-1.56261966
285.03	-2.07781277
285.241	-1.09462594
285.451	-1.42216928
285.662	-1.09677522
285.873	-0.6769096
286.083	-0.30428994
286.294	-0.19005955
286.504	0.01004761
286.715	-0.5622922
286.925	0.19751121
287.136	-0.2385443
287.346	-0.02864966
287.557	-0.61710041
287.767	-1.44110465
287.978	-1.52974688
288.188	-0.98544016
288.399	-1.25107577
288.609	-0.59906529
288.819	-0.88543798
289.03	-0.8651372
289.24	-0.63879506
289.451	-0.09789425
289.661	-0.29115709
289.871	0.14155332
290.082	0.57263006
290.292	0.33218839
290.502	0.22682148
290.713	0.35645472
290.923	0.48966071
291.133	0.85954674
291.344	0.76922193
291.554	0.91773758
291.764	1.08427076
291.974	1.39584837
292.185	1.64379065
292.395	1.68394885
292.605	1.73300544
292.815	1.8320613
293.026	1.51592526
293.236	1.83068655
293.446	2.02031798
293.656	1.91784619
293.866	1.88575509
294.077	1.79525805
294.287	1.57790506
294.497	1.5109849
294.707	1.65102168
294.917	1.80061951
295.127	1.89846957
295.337	1.9319291
295.548	1.90499252
295.758	1.89001992
295.968	1.95627481
296.178	1.98998852
296.388	2.17536548
296.598	2.34123831
296.808	2.37083214
297.018	2.29099904
297.228	2.57663606
297.438	2.6879426
297.648	2.79399821
297.858	2.87089917
298.068	2.84035937
298.278	2.88683947
298.488	3.00927298
298.698	3.15620042
298.908	3.21703419
299.118	3.23888499
299.328	3.31176176
299.538	3.38016831
299.748	3.41200286
299.957	3.43749622
300.167	3.4918831
300.377	3.47157788
300.587	3.46834224
300.797	3.45781757
301.007	3.46952173
301.217	3.55520684
301.426	3.59481413
301.636	3.57840805
301.846	3.56099324
302.056	3.52819112
302.266	3.58172291
302.475	3.62644045
302.685	3.62544831
302.895	3.6354427
303.105	3.63752352
303.314	3.64515555
303.524	3.6427285
303.734	3.64110034
303.944	3.63512654
304.153	3.63590109
304.363	3.65622227
304.573	3.65053906
304.782	3.67548985
304.992	3.69281901
305.202	3.70263086
305.411	3.69786953
305.621	3.69095865
305.831	3.6858839
306.04	3.69004512
306.25	3.72477697
306.459	3.74697471
306.669	3.74213994
306.878	3.74803661
307.088	3.75932815
307.298	3.75303268
307.507	3.75616743
307.717	3.74747368
307.926	3.75539745
308.136	3.75889171
308.345	3.76569754
308.555	3.7701959
308.764	3.77011312
308.974	3.78206847
309.183	3.78424197
309.392	3.78945989
309.602	3.78790507
309.811	3.79273208
310.021	3.77521156
310.23	3.79317045
310.44	3.79628177
310.649	3.79245881
310.858	3.79160068
311.068	3.78796835
311.277	3.79239215
311.486	3.7983688
311.696	3.8129583
311.905	3.81744174
312.114	3.82925191
312.324	3.83835651
312.533	3.84472384
312.742	3.84558663
312.952	3.85376681
313.161	3.85629505
313.37	3.85494631
313.579	3.86057564
313.789	3.8567226
313.998	3.85947225
314.207	3.87285242
314.416	3.88715451
314.625	3.88575551
314.835	3.88013035
315.044	3.88464784
315.253	3.88857262
315.462	3.88713597
315.671	3.88592572
315.88	3.88618922
316.09	3.88089419
316.299	3.8780634
316.508	3.87654975
316.717	3.87346903
316.926	3.87682519
317.135	3.8781661
317.344	3.87873395
317.553	3.88303073
317.762	3.89026398
317.971	3.89221015
318.18	3.89782871
318.389	3.89970323
318.598	3.88995975
318.807	3.89287356
319.016	3.88944064
319.225	3.89358417
319.434	3.8862977
319.643	3.88311338
319.852	3.88815802
320.061	3.89081012
320.27	3.89482315
320.479	3.89627938
320.688	3.89917759
320.897	3.90063725
321.105	3.90381654
321.314	3.90290841
321.523	3.90566932
321.732	3.9054038
321.941	3.9108801
322.15	3.90607015
322.359	3.90840665
322.567	3.91173548
322.776	3.91200867
322.985	3.91354868
323.194	3.91242016
323.403	3.91642289
323.611	3.91704629
323.82	3.92291115
324.029	3.92673592
324.237	3.92613154
324.446	3.92642049
324.655	3.93029133
324.864	3.9316108
325.072	3.93273168
325.281	3.9334811
325.49	3.93763717
325.698	3.93794379
325.907	3.93998649
326.116	3.93838043
326.324	3.93460506
326.533	3.94026967
326.741	3.94103562
326.95	3.94037737
327.159	3.9466701
327.367	3.94860289
327.576	3.94735868
327.784	3.95019566
327.993	3.95133279
328.201	3.95402011
328.41	3.95640487
328.618	3.9610491
328.827	3.96903317
329.035	3.97102912
329.244	3.97278912
329.452	3.97741445
329.661	3.98272564
329.869	3.97888008
330.078	3.98240798
330.286	3.98617597
330.495	3.99346689
330.703	3.99782991
330.911	3.99773177
331.12	3.99940002
331.328	4.00133388
331.537	3.99586712
331.745	4.00423127
331.953	4.01355866
332.162	4.01583994
332.37	4.02229014
332.578	4.02378219
332.787	4.02928736
332.995	4.03121227
333.203	4.03128604
333.411	4.02833512
333.62	4.03377456
333.828	4.03447127
334.036	4.03598338
334.244	4.03946629
334.453	4.04048676
334.661	4.04292489
334.869	4.04589806
335.077	4.04829428
335.285	4.05169623
335.494	4.05260098
335.702	4.0592667
335.91	4.06754885
336.118	4.06564791
336.326	4.06662905
336.534	4.06782916
336.742	4.06657187
336.951	4.07133571
337.159	4.07153475
337.367	4.0757056
337.575	4.07685239
337.783	4.07964465
337.991	4.07893787
338.199	4.08313363
338.407	4.08744019
338.615	4.09524963
338.823	4.09565553
339.031	4.09362438
339.239	4.0923767
339.447	4.09672401
339.655	4.0973813
339.863	4.10383382
340.071	4.10089461
340.279	4.10246397
340.487	4.10640364
340.695	4.11051386
340.903	4.11128262
341.11	4.11795509
341.318	4.1204841
341.526	4.12301045
341.734	4.12615722
341.942	4.12843431
342.15	4.13253126
342.358	4.13579514
342.565	4.13732009
342.773	4.13873462
342.981	4.14172418
343.189	4.14779227
343.397	4.15428717
343.604	4.1606868
343.812	4.16182729
344.02	4.16623756
344.228	4.16690162
344.435	4.17357839
344.643	4.17356133
344.851	4.1757351
345.058	4.17611443
345.266	4.18122132
345.474	4.17921154
345.681	4.18278962
345.889	4.18733536
346.097	4.1857323
346.304	4.18369958
346.512	4.18733325
346.72	4.19184627
346.927	4.19294138
347.135	4.19330552
347.342	4.19173373
347.55	4.19161041
347.758	4.19453611
347.965	4.1958801
348.173	4.1987544
348.38	4.20174031
348.588	4.2047298
348.795	4.20763562
349.003	4.2108812
349.21	4.21171979
349.418	4.2139229
349.625	4.21086846
349.833	4.22071428
350.04	4.21902164
350.247	4.22246197
350.455	4.22681971
350.662	4.23407368
350.87	4.23898776
351.077	4.24202433
351.284	4.2444811
351.492	4.24920087
351.699	4.25241486
351.906	4.25678176
352.114	4.25761396
352.321	4.26339811
352.528	4.26064693
352.736	4.26595182
352.943	4.2685968
353.15	4.27192045
353.358	4.27702284
353.565	4.28246141
353.772	4.28556874
353.979	4.29522797
354.187	4.29225327
354.394	4.29613861
354.601	4.29795314
354.808	4.30189308
355.015	4.30667867
355.223	4.30639626
355.43	4.30662193
355.637	4.31153406
355.844	4.31299374
356.051	4.31950217
356.258	4.32129084
356.465	4.32838517
356.673	4.33029362
356.88	4.34147046
357.087	4.34487052
357.294	4.34898086
357.501	4.34924835
357.708	4.35394673
357.915	4.35691814
358.122	4.36079884
358.329	4.3656671
358.536	4.37042953
358.743	4.37256075
358.95	4.37325967
359.157	4.37727272
359.364	4.37704619
359.571	4.38151816
359.778	4.38742101
359.985	4.38965354
360.192	4.39600219
360.399	4.40048236
360.606	4.40605842
360.812	4.40683561
361.019	4.41006057
361.226	4.40977482
361.433	4.41070511
361.64	4.41376096
361.847	4.41711024
362.054	4.41701786
362.26	4.42132451
362.467	4.42538857
362.674	4.42507905
362.881	4.42583787
363.088	4.4319235
363.294	4.43826081
363.501	4.43886763
363.708	4.4432266
363.915	4.44531933
364.121	4.44816398
364.328	4.45335002
364.535	4.45595941
364.741	4.45557278
364.948	4.45856667
365.155	4.46079541
365.361	4.46440891
365.568	4.46816608
365.775	4.47128255
365.981	4.47504481
366.188	4.47573864
366.395	4.48185684
366.601	4.48336948
366.808	4.48363933
367.014	4.48726017
367.221	4.49280381
367.427	4.49385078
367.634	4.49544728
367.84	4.50127403
368.047	4.50577158
368.254	4.51529604
368.46	4.51876859
368.667	4.52209421
368.873	4.52556934
369.079	4.53055055
369.286	4.53535733
369.492	4.54403212
369.699	4.54998692
369.905	4.5553546
370.112	4.56016019
370.318	4.5661615
370.524	4.5786535
370.731	4.58575345
370.937	4.59180108
371.144	4.60154924
371.35	4.60700886
371.556	4.61240471
371.763	4.61935502
371.969	4.62656864
372.175	4.6305196
372.381	4.63488269
372.588	4.63456376
372.794	4.6412414
373	4.64639213
373.206	4.65193794
373.413	4.65974451
373.619	4.66383387
373.825	4.66597622
374.031	4.66865151
374.238	4.67181465
374.444	4.67628018
374.65	4.67968619
374.856	4.68007108
375.062	4.6819662
375.268	4.6891576
375.475	4.69501029
375.681	4.70460215
375.887	4.70890405
376.093	4.7150057
376.299	4.71588545
376.505	4.72080009
376.711	4.72727098
376.917	4.73506324
377.123	4.73890219
377.329	4.74712265
377.535	4.75119905
377.741	4.7561988
377.947	4.76346844
378.153	4.76950604
378.359	4.77613587
378.565	4.7835076
378.771	4.79268976
378.977	4.79982369
379.183	4.80472892
379.389	4.81319106
379.595	4.81726497
379.801	4.8215018
380.007	4.82426879
380.213	4.8316224
380.418	4.83722994
380.624	4.84621813
380.83	4.85567451
381.036	4.86516421
381.242	4.86793895
381.448	4.87574515
381.653	4.87629559
381.859	4.88669383
382.065	4.89171135
382.271	4.89831005
382.476	4.90596187
382.682	4.91113109
382.888	4.91942238
383.094	4.92451893
383.299	4.93094468
383.505	4.93953576
383.711	4.94794689
383.916	4.95242106
384.122	4.95989259
384.328	4.96618861
384.533	4.97386561
384.739	4.98065148
384.945	4.98702693
385.15	4.99239979
385.356	4.99439632
385.562	5.00202212
385.767	5.007767
385.973	5.0175213
386.178	5.0220849
386.384	5.02150213
386.589	5.02722708
386.795	5.03312008
387	5.04266852
387.206	5.04596824
387.411	5.05219588
387.617	5.05723762
387.822	5.06400153
388.028	5.06958859
388.233	5.07668418
388.439	5.08166069
388.644	5.08547522
388.85	5.09244128
389.055	5.10069609
389.26	5.10858823
389.466	5.11564064
389.671	5.12465316
389.877	5.13339516
390.082	5.14111679
390.287	5.15020651
390.493	5.15531572
390.698	5.16966454
390.903	5.17822832
391.109	5.18481362
391.314	5.18954683
391.519	5.19673716
391.724	5.20422895
391.93	5.20947926
392.135	5.21607382
392.34	5.22442181
392.545	5.23186137
392.751	5.23981091
392.956	5.25178413
393.161	5.25671522
393.366	5.26091174
393.571	5.26710403
393.776	5.27427358
393.982	5.28066849
394.187	5.28561002
394.392	5.28920437
394.597	5.29350387
394.802	5.30147603
395.007	5.30894731
395.212	5.31454192
395.417	5.3178086
395.622	5.32542504
395.827	5.33350072
396.032	5.3412268
396.237	5.34597485
396.442	5.35207909
396.647	5.35512631
396.852	5.36215598
397.057	5.36652085
397.262	5.37048291
397.467	5.37756494
397.672	5.38435584
397.877	5.39126724
398.082	5.39447938
398.287	5.40063562
398.492	5.40585023
398.697	5.41027846
398.902	5.41565776
399.107	5.42016981
399.311	5.42423106
399.516	5.42948745
399.721	5.43573621
399.926	5.44158755
400.131	5.44680807
400.336	5.44940975
400.54	5.45660201
400.745	5.46255909
400.95	5.46628417
401.155	5.47212174
401.359	5.4776184
401.564	5.48283732
401.769	5.48599564
401.974	5.4925275
402.178	5.49923133
402.383	5.5064525
402.588	5.51015282
402.792	5.51399161
402.997	5.52174587
403.202	5.52781875
403.406	5.5339684
403.611	5.54031854
403.815	5.54598338
404.02	5.55489015
404.225	5.55841419
404.429	5.56225401
404.634	5.56952215
404.838	5.5751378
405.043	5.58120844
405.247	5.58775519
405.452	5.59357226
405.656	5.6004967
405.861	5.60482416
406.065	5.61247972
406.27	5.61802474
406.474	5.61978216
406.679	5.62720411
406.883	5.63419025
407.088	5.64295904
407.292	5.65028855
407.497	5.65560051
407.701	5.66214751
407.905	5.67054071
408.11	5.67453082
408.314	5.68007958
408.518	5.68706135
408.723	5.69371587
408.927	5.70046715
409.131	5.70827463
409.336	5.71339085
409.54	5.72091225
409.744	5.72622483
409.949	5.73283936
410.153	5.74098792
410.357	5.74549844
410.561	5.75103749
410.766	5.75829452
410.97	5.76153245
411.174	5.76656801
411.378	5.77357499
411.582	5.78007998
411.787	5.78779975
411.991	5.79565817
412.195	5.79810482
412.399	5.8064256
412.603	5.81283152
412.807	5.81906456
413.011	5.82566547
413.215	5.83005963
413.419	5.83521055
413.624	5.84096386
413.828	5.848146
414.032	5.85494573
414.236	5.86151482
414.44	5.86729872
414.644	5.87601695
414.848	5.88322841
415.052	5.88980375
415.256	5.89668232
415.46	5.90474727
415.664	5.91239292
415.868	5.91929115
416.072	5.92928221
416.275	5.93495675
416.479	5.94227117
416.683	5.9505403
416.887	5.95858538
417.091	5.96792019
417.295	5.97602386
417.499	5.98405482
417.703	5.99309235
417.906	6.00039374
418.11	6.00767457
418.314	6.01798304
418.518	6.0263508
418.722	6.03350102
418.925	6.04070951
419.129	6.05016345
419.333	6.05883448
419.537	6.07034851
419.74	6.07882429
419.944	6.08743127
420.148	6.09331907
420.352	6.09902181
420.555	6.10753833
420.759	6.117674
420.963	6.12354909
421.166	6.13058303
421.37	6.13897775
421.573	6.15051744
421.777	6.16003416
421.981	6.16892561
422.184	6.1806088
422.388	6.18940742
422.591	6.1972712
422.795	6.2046619
422.999	6.21428961
423.202	6.22230817
423.406	6.22968731
423.609	6.24043547
423.813	6.2461204
424.016	6.25779203
424.22	6.26601282
424.423	6.27619954
424.627	6.28544024
424.83	6.29496509
425.033	6.30394108
425.237	6.31582344
425.44	6.32303071
425.644	6.33311638
425.847	6.33978835
426.05	6.3487885
426.254	6.3568116
426.457	6.36613435
426.66	6.37768451
426.864	6.38687499
427.067	6.3969717
427.27	6.40956795
427.474	6.41891588
427.677	6.42916747
427.88	6.43903361
428.084	6.45177965
428.287	6.4586371
428.49	6.46848113
428.693	6.48135987
428.896	6.49061126
429.1	6.49898331
429.303	6.50679475
429.506	6.51642501
429.709	6.53146824
429.912	6.53968251
430.116	6.5518259
430.319	6.56172041
430.522	6.57521722
430.725	6.5850643
430.928	6.59350625
431.131	6.60395447
431.334	6.61514978
431.537	6.62646087
431.74	6.64008712
431.943	6.65049859
432.146	6.66137203
432.349	6.67162938
432.552	6.68261604
432.755	6.69335401
432.958	6.70141134
433.161	6.71207186
433.364	6.7253578
433.567	6.73779675
433.77	6.74828095
433.973	6.75711209
434.176	6.76742495
434.379	6.77644262
434.582	6.78594311
434.785	6.79470799
434.988	6.80486158
435.19	6.81346998
435.393	6.82505049
435.596	6.83391514
435.799	6.84305467
436.002	6.85299982
436.205	6.86212537
436.407	6.8725322
436.61	6.88059656
436.813	6.89168876
437.016	6.8999823
437.218	6.91094516
437.421	6.91858729
437.624	6.92627794
437.827	6.93672223
438.029	6.94542661
438.232	6.95393191
438.435	6.96294415
438.637	6.97146719
438.84	6.98296565
439.043	6.99254281
439.245	7.00039087
439.448	7.01218461
439.65	7.0194669
439.853	7.02884388
440.056	7.03903318
440.258	7.04632492
440.461	7.05561563
440.663	7.06232138
440.866	7.0709392
441.068	7.08037835
441.271	7.09306254
441.473	7.09930719
441.676	7.11052476
441.878	7.12053048
442.081	7.12866173
442.283	7.13666099
442.486	7.14786504
442.688	7.156676
442.89	7.16626888
443.093	7.17373485
443.295	7.18200984
443.498	7.19182368
443.7	7.19949146
443.902	7.20817542
444.105	7.21693852
444.307	7.22228412
444.509	7.23202117
444.712	7.24151106
444.914	7.24984273
445.116	7.26097266
445.319	7.26813727
445.521	7.27314797
445.723	7.28453793
445.925	7.29444996
446.128	7.30162224
446.33	7.31019438
446.532	7.32018335
446.734	7.32693714
446.936	7.33702877
447.139	7.34550527
447.341	7.35130201
447.543	7.36111985
447.745	7.36988822
447.947	7.37814633
448.149	7.38770839
448.351	7.39518909
448.553	7.40334593
448.755	7.40843155
448.958	7.41362417
449.16	7.42100467
449.362	7.42813429
449.564	7.43656033
449.766	7.44373394
449.968	7.44974078
450.17	7.4552333
450.372	7.46463351
450.574	7.47236907
450.776	7.47988619
450.978	7.48663731
451.179	7.49060833
451.381	7.49785209
451.583	7.5073858
451.785	7.51256998
451.987	7.51971649
452.189	7.52628532
452.391	7.53072815
452.593	7.53803498
452.795	7.54466215
452.996	7.55418762
453.198	7.56294076
453.4	7.57055457
453.602	7.57576456
453.804	7.58013552
454.005	7.58573392
454.207	7.59386822
454.409	7.60117308
454.611	7.60618996
454.812	7.61110054
455.014	7.61708968
455.216	7.62406273
455.417	7.63363828
455.619	7.63982737
455.821	7.64444511
456.022	7.65012648
456.224	7.65596099
456.426	7.66018506
456.627	7.66735871
456.829	7.67176895
457.031	7.67851449
457.232	7.68439258
457.434	7.69139729
457.635	7.69778559
457.837	7.70532696
458.038	7.71225013
458.24	7.72066197
458.441	7.72372587
458.643	7.72763607
458.844	7.73007511
459.046	7.73649715
459.247	7.74169879
459.449	7.74647255
459.65	7.74851637
459.852	7.75475676
460.053	7.75978465
460.254	7.76676607
460.456	7.77272702
460.657	7.77960652
460.859	7.78346934
461.06	7.79079628
461.261	7.79490518
461.463	7.79980518
461.664	7.80433454
461.865	7.80837961
462.066	7.81355245
462.268	7.82036871
462.469	7.82492064
462.67	7.83258916
462.872	7.83819279
463.073	7.84638503
463.274	7.85189883
463.475	7.85741773
463.676	7.86282644
463.878	7.8693719
464.079	7.87305544
464.28	7.87855101
464.481	7.88247324
464.682	7.88651088
464.883	7.893534
465.085	7.90109776
465.286	7.90672309
465.487	7.91135198
465.688	7.91555406
465.889	7.91832669
466.09	7.92333589
466.291	7.9278758
466.492	7.93199065
466.693	7.93677582
466.894	7.94223357
467.095	7.94845882
467.296	7.95318534
467.497	7.95801409
467.698	7.96229093
467.899	7.96781773
468.1	7.97341284
468.301	7.97852464
468.502	7.98403642
468.703	7.98881073
468.903	7.99422837
469.104	7.99972545
469.305	8.00254626
469.506	8.00660478
469.707	8.01327948
469.908	8.02063421
470.109	8.02721648
470.309	8.03442036
470.51	8.0403023
470.711	8.04533897
470.912	8.05097861
471.112	8.05696521
471.313	8.06360895
471.514	8.06962705
471.715	8.07440492
471.915	8.08142528
472.116	8.08831444
472.317	8.09266385
472.517	8.09963536
472.718	8.10796217
472.919	8.11628635
473.119	8.12253367
473.32	8.12846803
473.521	8.13509125
473.721	8.14276863
473.922	8.15060871
474.122	8.15669659
474.323	8.1645471
474.523	8.17155821
474.724	8.17951381
474.925	8.18645117
475.125	8.19452864
475.326	8.20031923
475.526	8.20657313
475.727	8.21337201
475.927	8.22160451
476.127	8.22830788
476.328	8.23425996
476.528	8.24361856
476.729	8.25056551
476.929	8.25779602
477.13	8.26415132
477.33	8.27237447
477.53	8.27890392
477.731	8.28711017
477.931	8.29481253
478.131	8.30052096
478.332	8.3077204
478.532	8.31415651
478.732	8.31930438
478.933	8.32642976
479.133	8.33511213
479.333	8.34068896
479.533	8.34791419
479.734	8.35601154
479.934	8.36327823
480.134	8.37153111
480.334	8.38089294
480.534	8.38899275
480.735	8.39600994
480.935	8.40507164
481.135	8.41321757
481.335	8.42152018
481.535	8.42949357
481.735	8.43824155
481.935	8.44780781
482.136	8.45573963
482.336	8.46498153
482.536	8.47339231
482.736	8.48196637
482.936	8.49238407
483.136	8.50227443
483.336	8.50992953
483.536	8.52083273
483.736	8.53098515
483.936	8.54064598
484.136	8.55014323
484.336	8.55939978
484.536	8.56811828
484.736	8.57718735
484.936	8.5867996
485.135	8.5962774
485.335	8.60447958
485.535	8.61245587
485.735	8.62202114
485.935	8.6308977
486.135	8.64051436
486.335	8.65138343
486.534	8.66087443
486.734	8.67057324
486.934	8.68315892
487.134	8.69312642
487.334	8.70191589
487.533	8.7125689
487.733	8.72195291
487.933	8.73221087
488.133	8.74101918
488.332	8.751727
488.532	8.76282855
488.732	8.77381814
488.931	8.78492671
489.131	8.79420128
489.331	8.80378828
489.53	8.81428128
489.73	8.82615396
489.93	8.83663182
490.129	8.84812441
490.329	8.85656731
490.528	8.86406066
490.728	8.87567652
490.928	8.88619896
491.127	8.89530607
491.327	8.90489872
491.526	8.91376698
491.726	8.92454468
491.925	8.93411913
492.125	8.94256868
492.324	8.95287194
492.524	8.96329666
492.723	8.97354838
492.922	8.98169087
493.122	8.99116058
493.321	9.00299321
493.521	9.01354337
493.72	9.02520327
493.919	9.03620759
494.119	9.04452433
494.318	9.05536698
494.517	9.06695322
494.717	9.0790181
494.916	9.08778006
495.115	9.0981156
495.315	9.10874896
495.514	9.119838
495.713	9.13053257
495.912	9.14003645
496.112	9.15299052
496.311	9.16524657
496.51	9.17821851
496.709	9.18870131
496.908	9.19827001
497.108	9.21143701
497.307	9.22267152
497.506	9.2344104
497.705	9.24550154
497.904	9.25714613
498.103	9.26871421
498.302	9.28264115
498.501	9.2935145
498.701	9.30494393
498.9	9.31720429
499.099	9.33215474
499.298	9.34389948
499.497	9.35543125
499.696	9.36819842
499.895	9.38162018
500.094	9.39467694
500.293	9.40565892
500.492	9.41952109
500.691	9.42951227
500.89	9.44302848
501.088	9.45611247
501.287	9.46776587
501.486	9.48274484
501.685	9.49540907
501.884	9.50855124
502.083	9.52039072
502.282	9.53232091
502.481	9.54499873
502.679	9.55984853
502.878	9.57411019
503.077	9.58739189
503.276	9.60033236
503.475	9.61431271
503.673	9.62696018
503.872	9.6392905
504.071	9.65368033
504.27	9.66826677
504.468	9.68108394
504.667	9.69221313
504.866	9.70639431
505.064	9.7208503
505.263	9.73353898
505.462	9.74660894
505.66	9.75802003
505.859	9.77118973
506.058	9.78385728
506.256	9.79735626
506.455	9.81087616
506.653	9.82433668
506.852	9.83612094
507.05	9.84799431
507.249	9.8595479
507.448	9.87184751
507.646	9.88572601
507.845	9.89991903
508.043	9.91255679
508.242	9.92210195
508.44	9.93370047
508.638	9.94672595
508.837	9.96160079
509.035	9.97390298
509.234	9.98565194
509.432	10.00016896
509.631	10.01293326
509.829	10.02739892
510.027	10.04244551
510.226	10.05737348
510.424	10.07157545
510.622	10.08523674
510.821	10.09867416
511.019	10.11205692
511.217	10.12695661
511.415	10.14177813
511.614	10.15492273
511.812	10.16892457
512.01	10.18307069
512.208	10.19907539
512.407	10.21734029
512.605	10.23150751
512.803	10.24917943
513.001	10.26332832
513.199	10.2792947
513.398	10.29352495
513.596	10.3092573
513.794	10.32689712
513.992	10.33960217
514.19	10.35502661
514.388	10.36877507
514.586	10.38493914
514.784	10.40066588
514.982	10.41639328
515.18	10.43292202
515.378	10.44971046
515.576	10.46689016
515.774	10.4828729
515.972	10.50064464
516.17	10.51666388
516.368	10.53309174
516.566	10.5484315
516.764	10.56512133
516.962	10.58044059
517.16	10.59755449
517.358	10.61430607
517.556	10.63226355
517.754	10.64855899
517.952	10.66347302
518.149	10.67945297
518.347	10.6940254
518.545	10.71201478
518.743	10.72802387
518.941	10.74577339
519.138	10.76406344
519.336	10.78101872
519.534	10.79674182
519.732	10.81377918
519.929	10.83240952
520.127	10.84788142
520.325	10.86368716
520.523	10.88123488
520.72	10.8987827
520.918	10.91612171
521.116	10.93301975
521.313	10.94905556
521.511	10.96658611
521.709	10.98221879
521.906	10.99837775
522.104	11.01431373
522.301	11.03501461
522.499	11.05233882
522.696	11.06939938
522.894	11.08583778
523.092	11.10174033
523.289	11.11717593
523.487	11.13346402
523.684	11.14908971
523.882	11.1663737
524.079	11.18245445
524.276	11.19923351
524.474	11.21838658
524.671	11.2364844
524.869	11.25373397
525.066	11.27269928
525.264	11.28917208
525.461	11.30630546
525.658	11.32223481
525.856	11.34011742
526.053	11.35852175
526.25	11.37724345
526.448	11.39307587
526.645	11.41081978
526.842	11.42786579
527.039	11.44565366
527.237	11.46534237
527.434	11.48136861
527.631	11.49866599
527.828	11.51822731
528.026	11.53473893
528.223	11.55144068
528.42	11.5694803
528.617	11.58631028
528.814	11.60330635
529.012	11.61943943
529.209	11.63578533
529.406	11.65535983
529.603	11.67168502
529.8	11.69039346
529.997	11.70769931
530.194	11.72609462
530.391	11.74309443
530.588	11.76113065
530.785	11.77888153
530.982	11.79547228
531.179	11.81072402
531.376	11.82443301
531.573	11.84182507
531.77	11.86075892
531.967	11.87690957
532.164	11.8966592
532.361	11.91408467
532.558	11.93040182
532.755	11.94531292
532.952	11.96042852
533.149	11.98051603
533.346	11.99812781
533.543	12.0130387
533.739	12.03246627
533.936	12.04798521
534.133	12.06478433
534.33	12.08059173
534.527	12.09775208
534.723	12.11558887
534.92	12.13338613
535.117	12.15101201
535.314	12.16901958
535.51	12.18893692
535.707	12.20813559
535.904	12.22312955
536.1	12.24115393
536.297	12.25668544
536.494	12.27636834
536.69	12.29550235
536.887	12.31672597
537.084	12.33490858
537.28	12.35198167
537.477	12.36969313
537.674	12.38835976
537.87	12.40423998
538.067	12.4225874
538.263	12.44179435
538.46	12.46135263
538.656	12.47934412
538.853	12.49750027
539.049	12.51667478
539.246	12.5358481
539.442	12.55555527
539.639	12.57185885
539.835	12.59070538
540.032	12.61207779
540.228	12.62868522
540.424	12.64552919
540.621	12.66182307
540.817	12.67768981
541.014	12.69423064
541.21	12.71255824
541.406	12.72873398
541.603	12.74587648
541.799	12.76446214
541.995	12.7835375
542.191	12.80170375
542.388	12.81860598
542.584	12.83751272
542.78	12.85645483
542.976	12.87254376
543.173	12.88844034
543.369	12.90547428
543.565	12.92561265
543.761	12.94386764
543.957	12.96216916
544.154	12.97861507
544.35	12.99867377
544.546	13.01832547
544.742	13.03632456
544.938	13.05448279
545.134	13.07405858
545.33	13.09267076
545.526	13.11182522
545.722	13.13115316
545.919	13.1505329
546.115	13.16866763
546.311	13.18569983
546.507	13.20453395
546.703	13.21943592
546.899	13.23690172
547.095	13.25504719
547.29	13.27534695
547.486	13.29320627
547.682	13.30911192
547.878	13.32563557
548.074	13.34095296
548.27	13.3591237
548.466	13.37615316
548.662	13.39386365
548.858	13.41093715
549.053	13.42993598
549.249	13.44492093
549.445	13.46132036
549.641	13.47685616
549.837	13.49398367
550.032	13.50933494
550.228	13.52596905
550.424	13.54485875
550.62	13.56197503
550.815	13.57874891
551.011	13.59529755
551.207	13.61106616
551.402	13.62375413
551.598	13.64222949
551.794	13.65788071
551.989	13.67560355
552.185	13.69507561
552.381	13.7102115
552.576	13.72581412
552.772	13.74034615
552.967	13.75752852
553.163	13.77323123
553.359	13.79076514
553.554	13.80737582
553.75	13.82578261
553.945	13.8416457
554.141	13.85721298
554.336	13.87450415
554.532	13.89028325
554.727	13.90496345
554.922	13.92439319
555.118	13.94022126
555.313	13.95732852
555.509	13.97614954
555.704	13.9902543
555.899	14.0067656
556.095	14.02191464
556.29	14.03752886
556.486	14.05590041
556.681	14.0740995
556.876	14.09339845
557.071	14.10949776
557.267	14.12507895
557.462	14.14177338
557.657	14.15640562
557.853	14.16870994
558.048	14.18525128
558.243	14.20040287
558.438	14.21586641
558.633	14.23421299
558.829	14.24821463
559.024	14.26060967
559.219	14.279344
559.414	14.29538479
559.609	14.30975977
559.804	14.32477326
559.999	14.34025707
560.194	14.35614741
560.39	14.37098648
560.585	14.38367088
560.78	14.39724747
560.975	14.40986937
561.17	14.42416395
561.365	14.43860646
561.56	14.45036046
561.755	14.46688695
561.95	14.48603672
562.145	14.5017041
562.34	14.51762047
562.535	14.53094147
562.729	14.54151326
562.924	14.55700255
563.119	14.57186416
563.314	14.58377143
563.509	14.59722375
563.704	14.60979549
563.899	14.62680446
564.093	14.64194719
564.288	14.65703634
564.483	14.67190653
564.678	14.68629835
564.873	14.69946997
565.067	14.71446426
565.262	14.72915379
565.457	14.7436034
565.652	14.75844356
565.846	14.77219778
566.041	14.78358356
566.236	14.79442315
566.43	14.8049812
566.625	14.81835539
566.82	14.83069509
567.014	14.84407822
567.209	14.85648806
567.404	14.87002527
567.598	14.88388901
567.793	14.8988535
567.987	14.91037308
568.182	14.92139801
568.376	14.93452342
568.571	14.94666218
568.765	14.96003983
568.96	14.9727416
569.154	14.98443121
569.349	14.99835641
569.543	15.01005614
569.738	15.02489945
569.932	15.03690254
570.127	15.04865877
570.321	15.06124478
570.515	15.07702923
570.71	15.09164141
570.904	15.10574964
571.098	15.1184949
571.293	15.13186041
571.487	15.14349863
571.681	15.15609841
571.876	15.16875368
572.07	15.18027028
572.264	15.19438661
572.458	15.20817276
572.653	15.22031708
572.847	15.2326517
573.041	15.24585608
573.235	15.25941001
573.43	15.26954974
573.624	15.28187403
573.818	15.2943183
574.012	15.30588313
574.206	15.31960953
574.4	15.3341118
574.594	15.34855124
574.788	15.35901954
574.983	15.37043974
575.177	15.38330807
575.371	15.39337852
575.565	15.40584215
575.759	15.41870283
575.953	15.42837278
576.147	15.44007297
576.341	15.44904967
576.535	15.45918031
576.729	15.46760841
576.923	15.47787111
577.117	15.48891913
577.31	15.50027471
577.504	15.51131032
577.698	15.5233233
577.892	15.53249662
578.086	15.54513767
578.28	15.55560843
578.474	15.56496096
578.668	15.57272118
578.861	15.58368498
579.055	15.59700161
579.249	15.60945176
579.443	15.62193708
579.636	15.63218105
579.83	15.64006523
580.024	15.65314408
580.218	15.66329701
580.411	15.67649997
580.605	15.68857936
580.799	15.69930537
580.992	15.71011763
581.186	15.72142786
581.38	15.72869537
581.573	15.73699839
581.767	15.74655605
581.961	15.75579026
582.154	15.76478643
582.348	15.77230125
582.541	15.78207494
582.735	15.78978876
582.928	15.79880489
583.122	15.80663609
583.315	15.81365257
583.509	15.82360139
583.702	15.83316954
583.896	15.8429364
584.089	15.85197457
584.283	15.86262999
584.476	15.86914629
584.67	15.87527939
584.863	15.88659163
585.056	15.89554355
585.25	15.90236561
585.443	15.91113046
585.636	15.92180793
585.83	15.93064952
586.023	15.94109478
586.216	15.95107463
586.41	15.96092135
586.603	15.96930073
586.796	15.98043298
586.989	15.99132451
587.183	15.99992466
587.376	16.0099509
587.569	16.01727055
587.762	16.02702681
587.955	16.03911076
588.149	16.04490637
588.342	16.05211679
588.535	16.06579207
588.728	16.07682098
588.921	16.08491523
589.114	16.09485161
589.307	16.10836229
589.5	16.11792233
589.693	16.13061855
589.886	16.14323513
590.08	16.15012942
590.273	16.15931796
590.466	16.17008648
590.659	16.17830829
590.852	16.1867799
591.044	16.19408154
591.237	16.20595449
591.43	16.21494712
591.623	16.22582667
591.816	16.23245061
592.009	16.23947695
592.202	16.25177642
592.395	16.26301869
592.588	16.26775303
592.781	16.27354271
592.973	16.28248779
593.166	16.29182336
593.359	16.30017674
593.552	16.308836
593.745	16.31509208
593.937	16.32243089
594.13	16.33232485
594.323	16.34149434
594.515	16.35002386
594.708	16.36192199
594.901	16.36977687
595.094	16.37956006
595.286	16.38735907
595.479	16.39458801
595.672	16.40105503
595.864	16.41363631
596.057	16.4236776
596.249	16.43132556
596.442	16.44023128
596.635	16.44929933
596.827	16.45971763
597.02	16.46840137
597.212	16.47555537
597.405	16.48234432
597.597	16.49070313
597.79	16.49689816
597.982	16.50505341
598.175	16.51176631
598.367	16.51509391
598.559	16.52357851
598.752	16.52925929
598.944	16.53611616
599.137	16.54356173
599.329	16.55103947
599.521	16.5605969
599.714	16.5691744
599.906	16.57534132
600.098	16.58162791
600.291	16.58897159
600.483	16.59405511
600.675	16.60184986
600.868	16.6072184
601.06	16.61145368
601.252	16.6184415
601.444	16.62512089
601.637	16.63135494
601.829	16.64225456
602.021	16.65092615
602.213	16.65774107
602.405	16.66662648
602.597	16.67473395
602.789	16.68384596
602.982	16.69323988
603.174	16.69985246
603.366	16.70701481
603.558	16.71684164
603.75	16.72236802
603.942	16.72843886
604.134	16.73339559
604.326	16.73890149
604.518	16.74708987
604.71	16.7535679
604.902	16.75761919
605.094	16.76661564
605.286	16.77018481
605.478	16.77389346
605.67	16.77940559
605.862	16.78178432
606.054	16.78781371
606.246	16.79699086
606.437	16.80456968
606.629	16.80927464
606.821	16.81404914
607.013	16.81763733
607.205	16.82300107
607.397	16.82674474
607.588	16.8297909
607.78	16.83845388
607.972	16.84342256
608.164	16.84944566
608.355	16.85903803
608.547	16.86718837
608.739	16.87185229
608.93	16.88441967
609.122	16.89134129
609.314	16.90154574
609.505	16.9110584
609.697	16.9196314
609.889	16.92805564
610.08	16.93256262
610.272	16.93730255
610.463	16.93914937
610.655	16.94342709
610.847	16.95001112
611.038	16.95530731
611.23	16.9619155
611.421	16.97110276
611.613	16.97707416
611.804	16.98241005
611.996	16.99082609
612.187	17.00011539
612.379	17.00225395
612.57	17.00638931
612.761	17.01464967
612.953	17.02223557
613.144	17.0290288
613.336	17.03421489
613.527	17.03850092
613.718	17.04558454
613.91	17.05383325
614.101	17.05964919
614.292	17.06972884
614.483	17.08122638
614.675	17.08904859
614.866	17.09375099
615.057	17.10101394
615.248	17.10813623
615.44	17.11430062
615.631	17.11854794
615.822	17.12331058
616.013	17.12935124
616.204	17.13300878
616.396	17.14007163
616.587	17.14457872
616.778	17.1484736
616.969	17.1509799
617.16	17.1540422
617.351	17.16309842
617.542	17.16917233
617.733	17.17404937
617.924	17.17490365
618.115	17.18042588
618.306	17.18327571
618.497	17.18651396
618.688	17.19560789
618.879	17.20095492
619.07	17.21118573
619.261	17.21788516
619.452	17.22163964
619.643	17.22726468
619.834	17.23239642
620.025	17.23341179
620.216	17.24105636
620.407	17.24932175
620.597	17.25760606
620.788	17.26727402
620.979	17.272371
621.17	17.27971032
621.361	17.28112187
621.551	17.28667695
621.742	17.29046055
621.933	17.30053646
622.124	17.3057434
622.314	17.3108578
622.505	17.31786213
622.696	17.31933378
622.886	17.3270508
623.077	17.32768493
623.268	17.33020621
623.458	17.33779622
623.649	17.34503299
623.84	17.35291179
624.03	17.36351105
624.221	17.36943394
624.411	17.37424605
624.602	17.37575207
624.792	17.37959684
624.983	17.38760133
625.173	17.39271467
625.364	17.39725563
625.554	17.40422751
625.745	17.41779132
625.935	17.41997328
626.126	17.42822919
626.316	17.43298072
626.507	17.4416591
626.697	17.44974215
626.887	17.45492895
627.078	17.4644371
627.268	17.47436821
627.458	17.47665955
627.649	17.4857176
627.839	17.48979605
628.029	17.49583544
628.22	17.50086501
628.41	17.50644877
628.6	17.51370918
628.79	17.51661373
628.981	17.52206164
629.171	17.52884316
629.361	17.53923083
629.551	17.54836025
629.741	17.54892521
629.932	17.55773122
630.122	17.56145125
630.312	17.56827671
630.502	17.5704216
630.692	17.57381609
630.882	17.57778547
631.072	17.58155748
631.262	17.58686947
631.452	17.59362614
631.642	17.59778202
631.832	17.60958349
632.022	17.61466398
632.212	17.61820056
632.402	17.6253589
632.592	17.63541646
632.782	17.64499008
632.972	17.64915147
633.162	17.65451738
633.352	17.66122354
633.542	17.66452111
633.732	17.67216031
633.922	17.6804449
634.111	17.68543831
634.301	17.69293134
634.491	17.69979251
634.681	17.7066881
634.871	17.71472501
635.06	17.72455601
635.25	17.72805175
635.44	17.73340778
635.63	17.73784177
635.819	17.73615028
636.009	17.74146604
636.199	17.75064648
636.388	17.75593838
636.578	17.76125948
636.768	17.76523331
636.957	17.77358202
637.147	17.77572809
637.337	17.77911175
637.526	17.78451789
637.716	17.78812301
637.905	17.78935139
638.095	17.79769346
638.284	17.80464135
638.474	17.80656415
638.663	17.81372635
638.853	17.81476646
639.042	17.82155089
639.232	17.82514293
639.421	17.83222675
639.611	17.838641
639.8	17.84729274
639.99	17.8532252
640.179	17.85825043
640.368	17.85999607
640.558	17.86460576
640.747	17.86850528
640.936	17.86988586
641.126	17.88174209
641.315	17.88567285
641.504	17.88978849
641.694	17.89865306
641.883	17.90377649
642.072	17.90525968
642.261	17.90870146
642.451	17.91661028
642.64	17.92052404
642.829	17.92937672
643.018	17.92692371
643.207	17.93730277
643.397	17.94423599
643.586	17.9446948
643.775	17.94904991
643.964	17.9528008
644.153	17.95611307
644.342	17.96109652
644.531	17.96097071
644.72	17.96657969
644.909	17.97549309
645.098	17.97970761
645.287	17.98387876
645.476	17.99202707
645.665	17.99106311
645.854	17.99715009
646.043	18.0067623
646.232	18.00879606
646.421	18.01277142
646.61	18.01791187
646.799	18.02248547
646.988	18.03112694
647.177	18.03535884
647.365	18.03743517
647.554	18.04638583
647.743	18.05254681
647.932	18.05688324
648.121	18.06260525
648.309	18.06914268
648.498	18.07735657
648.687	18.08542408
648.876	18.09216962
649.064	18.09393889
649.253	18.10272971
649.442	18.10673152
649.63	18.11440763
649.819	18.11860167
650.008	18.12141754
650.196	18.12867117
650.385	18.13011885
650.574	18.13594468
650.762	18.14136964
650.951	18.14454417
651.139	18.1494151
651.328	18.15548352
651.516	18.16238409
651.705	18.16532766
651.893	18.17602452
652.082	18.17896878
652.27	18.18176623
652.459	18.1873656
652.647	18.19266868
652.836	18.19265501
653.024	18.20266902
653.213	18.20627559
653.401	18.21209708
653.589	18.21559206
653.778	18.21820059
653.966	18.22446605
654.154	18.23279337
654.343	18.24776473
654.531	18.2506301
654.719	18.25470106
654.908	18.26211066
655.096	18.26528658
655.284	18.26907939
655.472	18.2750814
655.661	18.28451866
655.849	18.28661684
656.037	18.29608514
656.225	18.30509512
656.413	18.30978531
656.601	18.31584135
656.79	18.3258562
656.978	18.32674277
657.166	18.32904974
657.354	18.33216956
657.542	18.33692741
657.73	18.3458487
657.918	18.3532749
658.106	18.35736608
658.294	18.35926223
658.482	18.36425868
658.67	18.37502666
658.858	18.38071745
659.046	18.38641297
659.234	18.39050956
659.422	18.39137073
659.61	18.3969799
659.798	18.40466516
659.986	18.40514184
660.173	18.40815129
660.361	18.41215043
660.549	18.413991
660.737	18.41862705
660.925	18.42143857
661.113	18.42719991
661.3	18.43498959
661.488	18.44165778
661.676	18.44378299
661.864	18.4426658
662.051	18.44745772
662.239	18.44982749
662.427	18.45728127
662.614	18.45661808
662.802	18.46009965
662.99	18.47071817
663.177	18.48076035
663.365	18.48891465
663.553	18.49180946
663.74	18.49276002
663.928	18.50415158
664.115	18.50755137
664.303	18.51493613
664.49	18.52122914
664.678	18.52585166
664.866	18.53713442
665.053	18.54204903
665.24	18.54728328
665.428	18.55076291
665.615	18.5597292
665.803	18.56673044
665.99	18.57209618
666.178	18.58291488
666.365	18.58876689
666.552	18.59405331
666.74	18.5989303
666.927	18.60044174
667.114	18.60525266
667.302	18.60553252
667.489	18.60792929
667.676	18.61197636
667.864	18.61494683
668.051	18.62526619
668.238	18.63239369
668.425	18.63835832
668.613	18.63982314
668.8	18.63947013
668.987	18.6476034
669.174	18.64619235
669.361	18.65632419
669.548	18.65870428
669.736	18.67009482
669.923	18.67454757
670.11	18.67517079
670.297	18.6818107
670.484	18.68965953
670.671	18.69165395
670.858	18.69398378
671.045	18.69852411
671.232	18.70726479
671.419	18.71395202
671.606	18.72255165
671.793	18.72460625
671.98	18.72581749
672.167	18.72501394
672.354	18.732668
672.541	18.74135995
672.728	18.74874998
672.915	18.75308234
673.101	18.76185725
673.288	18.77001222
673.475	18.7748962
673.662	18.77532287
673.849	18.78344483
674.035	18.79359207
674.222	18.79245691
674.409	18.79965731
674.596	18.80880955
674.783	18.81805591
674.969	18.82363225
675.156	18.83060939
675.343	18.83747218
675.529	18.84323118
675.716	18.85003433
675.903	18.86059422
676.089	18.8759038
676.276	18.88091861
676.462	18.89074656
676.649	18.89854687
676.836	18.90706737
677.022	18.91787915
677.209	18.92000812
677.395	18.92318145
677.582	18.92873031
677.768	18.93171988
677.955	18.9335906
678.141	18.94411216
678.328	18.95446777
678.514	18.96274367
678.701	18.96831485
678.887	18.97531484
679.073	18.98182947
679.26	18.99035479
679.446	18.9953597
679.632	19.00282716
679.819	19.00997717
680.005	19.00909704
680.191	19.01355357
680.378	19.01257663
680.564	19.02176174
680.75	19.02684933
680.936	19.03824773
681.123	19.04695308
681.309	19.06171152
681.495	19.07198931
681.681	19.07992157
681.867	19.09320706
682.054	19.10368114
682.24	19.10372325
682.426	19.11323332
682.612	19.1232325
682.798	19.12705822
682.984	19.13120109
683.17	19.14067981
683.356	19.15092505
683.542	19.16351442
683.728	19.17233921
683.914	19.18330133
684.1	19.19752097
684.286	19.21128523
684.472	19.21638319
684.658	19.22808006
684.844	19.22920469
685.03	19.24086173
685.216	19.25083478
685.402	19.2623035
685.588	19.27592385
685.774	19.28392584
685.96	19.29117445
686.145	19.30675501
686.331	19.31176327
686.517	19.3230664
686.703	19.34011927
686.889	19.35591683
687.074	19.36436475
687.26	19.37609698
687.446	19.38840204
687.631	19.39668176
687.817	19.405597
688.003	19.40955926
688.189	19.41883733
688.374	19.43418154
688.56	19.44134187
688.745	19.46194288
688.931	19.46367133
689.117	19.47409967
689.302	19.48372738
689.488	19.4943627
689.673	19.50381764
689.859	19.52025978
690.044	19.53270252
690.23	19.55429722
690.415	19.56947494
690.601	19.57740528
690.786	19.59216085
690.972	19.60379181
691.157	19.62104715
691.343	19.63555962
691.528	19.65505656
691.713	19.66896951
691.899	19.68234898
692.084	19.70314995
692.269	19.71478215
692.455	19.73151215
692.64	19.74200818
692.825	19.75911363
693.011	19.76942474
693.196	19.78136964
693.381	19.79398236
693.566	19.80706396
693.752	19.80921865
693.937	19.8211281
694.122	19.82930294
694.307	19.83271289
694.492	19.84739883
694.678	19.85592206
694.863	19.87046564
695.048	19.87663757
695.233	19.88219964
695.418	19.88698178
695.603	19.90126255
695.788	19.91351909
695.973	19.91984619
696.158	19.93762179
696.343	19.95236355
696.528	19.96203385
696.713	19.97695333
696.898	19.98838282
697.083	20.00139653
697.268	20.01067637
697.453	20.02338082
697.638	20.04541746
697.823	20.05458482
698.008	20.0689822
698.192	20.08407447
698.377	20.09590403
698.562	20.10857921
698.747	20.12057629
698.932	20.13162375
699.117	20.14926316
699.301	20.16818382
699.486	20.18238977
699.671	20.20234819
699.856	20.21763489
700.04	20.22514323
700.225	20.23528193
700.41	20.2466274
700.594	20.25312158
700.779	20.27180952
700.964	20.28288177
701.148	20.29490397
701.333	20.31211184
701.517	20.32243947
701.702	20.33711841
701.887	20.35433865
702.071	20.36482145
702.256	20.38224527
702.44	20.39283961
702.625	20.40564612
702.809	20.41820986
702.994	20.43146239
703.178	20.44232683
703.362	20.45612063
703.547	20.4688108
703.731	20.48054605
703.916	20.49765126
704.1	20.51328528
704.284	20.52713525
704.469	20.54388175
704.653	20.56000046
704.837	20.58316853
705.022	20.60356692
705.206	20.61579898
705.39	20.62956856
705.575	20.63650896
705.759	20.64173208
705.943	20.65955328
706.127	20.66777802
706.311	20.68677001
706.496	20.69955791
706.68	20.71689197
706.864	20.72773606
707.048	20.74114179
707.232	20.75494205
707.416	20.7635824
707.6	20.77555919
707.785	20.7862769
707.969	20.79514187
708.153	20.8048577
708.337	20.81779062
708.521	20.82611707
708.705	20.83361528
708.889	20.83984543
709.073	20.84974222
709.257	20.86086141
709.441	20.88034143
709.624	20.88891732
709.808	20.89910598
709.992	20.91551977
710.176	20.92115532
710.36	20.93463646
710.544	20.9395123
710.728	20.94986731
710.912	20.96048772
711.095	20.96774536
711.279	20.98682322
711.463	21.00338085
711.647	21.01307357
711.83	21.0298982
712.014	21.04193998
712.198	21.05171932
712.382	21.06673805
712.565	21.07723928
712.749	21.08934729
712.933	21.10794699
713.116	21.12143439
713.3	21.13367237
713.483	21.14770316
713.667	21.16094739
713.851	21.16840919
714.034	21.18364347
714.218	21.1936648
714.401	21.21441091
714.585	21.23082257
714.768	21.24229179
714.952	21.25764527
715.135	21.26544476
715.319	21.27444509
715.502	21.28618906
715.686	21.29845232
715.869	21.31540926
716.052	21.33846737
716.236	21.34658273
716.419	21.35651955
716.602	21.37086075
716.786	21.3782124
716.969	21.38713651
717.152	21.40859476
717.336	21.4195933
717.519	21.4350033
717.702	21.44561477
717.885	21.45227787
718.069	21.46792177
718.252	21.48072878
718.435	21.49361855
718.618	21.49984468
718.801	21.50916575
718.985	21.52338715
719.168	21.53122449
719.351	21.55191938
719.534	21.55956126
719.717	21.57207178
719.9	21.57978705
720.083	21.59029587
720.266	21.6079313
720.449	21.62238856
720.632	21.6348232
720.815	21.65491014
720.998	21.65463735
721.181	21.67242193
721.364	21.68756946
721.547	21.7039517
721.73	21.72334294
721.913	21.74134112
722.096	21.75247014
722.279	21.76127269
722.461	21.77985945
722.644	21.79552447
722.827	21.80333742
723.01	21.81716525
723.193	21.82512133
723.376	21.83692112
723.558	21.84998583
723.741	21.8649793
723.924	21.87766591
724.107	21.88332878
724.289	21.89494963
724.472	21.8994006
724.655	21.90271672
724.837	21.92185924
725.02	21.93168499
725.203	21.93968033
725.385	21.94925813
725.568	21.96004694
725.75	21.95996405
725.933	21.9695148
726.115	21.97448059
726.298	21.9894256
726.481	22.00490819
726.663	22.01533311
726.845	22.02749803
727.028	22.0403123
727.21	22.05154319
727.393	22.05455031
727.575	22.06082757
727.758	22.08233469
727.94	22.09740504
728.122	22.10347709
728.305	22.11906384
728.487	22.12972559
728.67	22.13779259
728.852	22.14554028
729.034	22.16089922
729.216	22.17253961
729.399	22.18742443
729.581	22.20361777
729.763	22.21591481
729.945	22.23033367
730.128	22.23362762
730.31	22.23648538
730.492	22.24974749
730.674	22.26232954
730.856	22.26892498
731.039	22.27821363
731.221	22.28874211
731.403	22.30120186
731.585	22.30403333
731.767	22.31398153
731.949	22.32539962
732.131	22.33227442
732.313	22.34744113
732.495	22.35064231
732.677	22.35844615
732.859	22.3581728
733.041	22.368816
733.223	22.3730921
733.405	22.37833263
733.587	22.39011876
733.769	22.40412583
733.951	22.41603651
734.132	22.42374438
734.314	22.42879918
734.496	22.43311569
734.678	22.44128627
734.86	22.45111372
735.042	22.46334343
735.223	22.4664463
735.405	22.47612353
735.587	22.47918594
735.769	22.48764616
735.95	22.49961062
736.132	22.50372669
736.314	22.50891926
736.495	22.51442
736.677	22.52541528
736.859	22.53351008
737.04	22.54021526
737.222	22.55048406
737.403	22.55116621
737.585	22.55690749
737.767	22.56222652
737.948	22.57561456
738.13	22.58386755
738.311	22.58958713
738.493	22.59664971
738.674	22.60154831
738.856	22.60594652
739.037	22.61666727
739.219	22.62335174
739.4	22.63151824
739.581	22.63951367
739.763	22.64108241
739.944	22.64788235
740.125	22.66372498
740.307	22.67190738
740.488	22.67835985
740.669	22.67986572
740.851	22.6941368
741.032	22.70229692
741.213	22.71074635
741.395	22.71601804
741.576	22.72880528
741.757	22.73422977
741.938	22.74002073
742.119	22.74799437
742.301	22.7503667
742.482	22.7554665
742.663	22.76220006
742.844	22.76621093
743.025	22.77110528
743.206	22.77884265
743.387	22.78544106
743.568	22.79769374
743.749	22.80320793
743.93	22.79890966
744.111	22.80366524
744.292	22.80717971
744.473	22.81946912
744.654	22.82070517
744.835	22.82097161
745.016	22.82457783
745.197	22.83102959
745.378	22.83385318
745.559	22.83856852
745.74	22.845082
745.921	22.85122423
746.102	22.86442056
746.282	22.87549602
746.463	22.88391994
746.644	22.8917146
746.825	22.90053423
747.006	22.9066412
747.186	22.91054699
747.367	22.91418263
747.548	22.92171649
747.728	22.93527737
747.909	22.95101985
748.09	22.96017122
748.27	22.966363
748.451	22.97151606
748.632	22.98241867
748.812	22.99271906
748.993	22.99808818
749.173	23.00243805
749.354	23.01452526
749.535	23.01744346
749.715	23.028003
749.896	23.03029596
750.076	23.03778872
750.257	23.0424567
750.437	23.0489545
750.618	23.05570955
750.798	23.06041463
750.978	23.06915269
751.159	23.07730802
751.339	23.08091894
751.52	23.08107201
751.7	23.08575427
751.88	23.09159517
752.061	23.08957246
752.241	23.09272645
752.421	23.09507789
752.601	23.09870575
752.782	23.10780532
752.962	23.12059511
753.142	23.12063064
753.322	23.12968315
753.503	23.13370181
753.683	23.14020475
753.863	23.14063862
754.043	23.14891532
754.223	23.1550115
754.403	23.15526266
754.583	23.16398215
754.764	23.16529044
754.944	23.1745598
755.124	23.18494871
755.304	23.19772995
755.484	23.20021481
755.664	23.21181411
755.844	23.21867704
756.024	23.23064381
756.204	23.24359618
756.384	23.24908265
756.564	23.25628117
756.743	23.25550048
756.923	23.25871951
757.103	23.26383287
757.283	23.26748757
757.463	23.26604419
757.643	23.27948951
757.823	23.28974867
758.002	23.29840778
758.182	23.31029577
758.362	23.31694198
758.542	23.32250593
758.721	23.32653907
758.901	23.33296643
759.081	23.35476659
759.261	23.37849183
759.44	23.3838285
759.62	23.40399985
759.8	23.41054072
759.979	23.41779927
760.159	23.4357131
760.338	23.4397427
760.518	23.44614543
760.698	23.45388113
760.877	23.46577646
761.057	23.48288542
761.236	23.50440134
761.416	23.50977244
761.595	23.51642798
761.775	23.52151258
761.954	23.52974017
762.133	23.53920239
762.313	23.55728442
762.492	23.56251567
762.672	23.56757629
762.851	23.56267543
763.03	23.55763558
763.21	23.56841128
763.389	23.57062475
763.568	23.57837747
763.748	23.5749277
763.927	23.57815613
764.106	23.58813711
764.286	23.59633518
764.465	23.59983371
764.644	23.60949072
764.823	23.61717396
765.002	23.61576496
765.182	23.61714433
765.361	23.62141906
765.54	23.62897172
765.719	23.63764381
765.898	23.63945126
766.077	23.63316375
766.256	23.63842364
766.435	23.64862968
766.614	23.65302963
766.793	23.65438212
766.972	23.65736543
767.151	23.66347006
767.33	23.67101161
767.509	23.67897575
767.688	23.68380179
767.867	23.68380989
768.046	23.68613679
768.225	23.69444855
768.404	23.69905087
768.583	23.69802501
768.762	23.70911307
768.94	23.71634781
769.119	23.7156313
769.298	23.71875994
769.477	23.71962874
769.656	23.72796604
769.834	23.73620044
770.013	23.74012076
770.192	23.73970118
770.37	23.74652272
770.549	23.75710955
770.728	23.75948022
770.906	23.76517038
771.085	23.76649631
771.264	23.77926167
771.442	23.780564
771.621	23.79026323
771.799	23.79506961
771.978	23.80855676
772.157	23.80734618
772.335	23.80860167
772.514	23.80623259
772.692	23.81451559
772.871	23.81991358
773.049	23.82782504
773.228	23.83541845
773.406	23.8426122
773.584	23.85789982
773.763	23.85909891
773.941	23.87125099
774.119	23.87283954
774.298	23.87855498
774.476	23.87751596
774.655	23.88102638
774.833	23.8933398
775.011	23.89383873
775.189	23.90275979
775.368	23.90451145
775.546	23.91176088
775.724	23.90652132
775.902	23.91458166
776.08	23.92639661
776.259	23.93403616
776.437	23.93635821
776.615	23.94496365
776.793	23.9468906
776.971	23.94875609
777.149	23.94980202
777.327	23.94847246
777.505	23.96046922
777.683	23.96963096
777.861	23.97600364
778.04	23.97482722
778.218	23.9902615
778.395	23.99664303
778.573	23.99314592
778.751	24.00025841
778.929	24.00582523
779.107	24.00679769
779.285	24.01645646
779.463	24.02745743
779.641	24.04272293
779.819	24.03626071
779.997	24.04704272
780.174	24.0499803
780.352	24.0626305
780.53	24.06525105
780.708	24.0711402
780.886	24.07293296
781.063	24.07413606
781.241	24.07800278
781.419	24.07064581
781.596	24.07985232
781.774	24.08765718
781.952	24.08132607
782.129	24.09285261
782.307	24.10162209
782.485	24.10987596
782.662	24.11155299
782.84	24.12131881
783.017	24.1155873
783.195	24.1190804
783.372	24.11489686
783.55	24.12566781
783.727	24.11928498
783.905	24.12794401
784.082	24.1272662
784.26	24.13830608
784.437	24.13524614
784.615	24.1448482
784.792	24.15601102
784.969	24.16766491
785.147	24.18302866
785.324	24.1803164
785.501	24.19134022
785.679	24.20333247
785.856	24.19531758
786.033	24.18955968
786.211	24.19486453
786.388	24.19988263
786.565	24.20983606
786.742	24.21660574
786.92	24.2193474
787.097	24.21367255
787.274	24.22261352
787.451	24.23220084
787.628	24.23381246
787.805	24.23213239
787.982	24.23932575
788.16	24.2469596
788.337	24.25268303
788.514	24.24559425
788.691	24.24587723
788.868	24.24199933
789.045	24.25038853
789.222	24.25014576
789.399	24.26016383
789.576	24.25906205
789.753	24.25997862
789.93	24.24527794
790.106	24.24392323
790.283	24.23008171
790.46	24.23056396
790.637	24.23649471
790.814	24.2544127
790.991	24.25808659
791.168	24.26015892
791.344	24.26363657
791.521	24.27106011
791.698	24.27092369
791.875	24.27862917
792.051	24.2754877
792.228	24.28554151
792.405	24.28171175
792.581	24.28697071
792.758	24.27856208
792.935	24.276564
793.111	24.26732872
793.288	24.28064656
793.465	24.29777512
793.641	24.31537443
793.818	24.32730436
793.994	24.34799072
794.171	24.3636121
794.347	24.36548474
794.524	24.36350046
794.7	24.37093292
794.877	24.36874113
795.053	24.36852849
795.23	24.35748523
795.406	24.35940695
795.583	24.34636356
795.759	24.34996901
795.935	24.34991161
796.112	24.34745244
796.288	24.33967831
796.464	24.3528507
796.641	24.3529803
796.817	24.35682711
796.993	24.35679592
797.169	24.35986689
797.346	24.37353073
797.522	24.36929773
797.698	24.35888823
797.874	24.3587192
798.051	24.34286763
798.227	24.3464331
798.403	24.34149168
798.579	24.36102873
798.755	24.37143136
798.931	24.39643195
799.107	24.39570953
799.283	24.40618366
799.459	24.40005479
799.635	24.41503611
799.811	24.41992627
799.987	24.43599997
800.163	24.44534851
800.339	24.44616573
800.515	24.45209563
800.691	24.45610489
800.867	24.4510719
801.043	24.43482735
801.219	24.43771757
801.395	24.44853671
801.571	24.45733128
801.746	24.4772986
801.922	24.48710387
802.098	24.48918626
802.274	24.47456758
802.45	24.47518321
802.625	24.47175427
802.801	24.46746738
802.977	24.47324452
803.152	24.48647606
803.328	24.46805541
803.504	24.48008046
803.679	24.46725098
803.855	24.46353186
804.031	24.47347182
804.206	24.47360803
804.382	24.48317705
804.557	24.48469751
804.733	24.48616286
804.909	24.48457332
805.084	24.47518274
805.26	24.43939896
805.435	24.43557133
805.61	24.42699594
805.786	24.43519029
805.961	24.43293944
806.137	24.42305621
806.312	24.41366987
806.488	24.41720186
806.663	24.41052393
806.838	24.41487152
807.014	24.42825306
807.189	24.42765591
807.364	24.43424251
807.54	24.4368224
807.715	24.42000103
807.89	24.4395075
808.065	24.42877247
808.241	24.43910071
808.416	24.43098102
808.591	24.44355667
808.766	24.47289046
808.941	24.50703206
809.116	24.51001606
809.291	24.5002353
809.467	24.48147857
809.642	24.50470488
809.817	24.50824007
809.992	24.50547659
810.167	24.49708065
810.342	24.51969711
810.517	24.51911054
810.692	24.52161837
810.867	24.5293343
811.042	24.53350725
811.217	24.54859586
811.392	24.57990399
811.567	24.56313373
811.741	24.55148683
811.916	24.54751386
812.091	24.57311443
812.266	24.56455992
812.441	24.54264866
812.616	24.55173606
812.79	24.5525244
812.965	24.56803311
813.14	24.57398752
813.315	24.55237004
813.489	24.55863372
813.664	24.56833074
813.839	24.57250068
814.013	24.54962532
814.188	24.54681766
814.363	24.52821907
814.537	24.52685522
814.712	24.54589187
814.887	24.52612627
815.061	24.52149895
815.236	24.53203752
815.41	24.53095042
815.585	24.53032953
815.759	24.54500387
815.934	24.56568344
816.108	24.5764244
816.283	24.55429659
816.457	24.55815642
816.631	24.56606687
816.806	24.58907053
816.98	24.5989892
817.155	24.57823581
817.329	24.58232192
817.503	24.6017789
817.678	24.61875069
817.852	24.60733691
818.026	24.62741468
818.201	24.60368648
818.375	24.58434046
818.549	24.58685739
818.723	24.57522524
818.897	24.55729813
819.072	24.56194643
819.246	24.56100644
819.42	24.53688787
819.594	24.49606537
819.768	24.47823015
819.942	24.49656894
820.116	24.49322634
820.29	24.47918146
820.465	24.46622124
820.639	24.45596845
820.813	24.47685622
820.987	24.48790793
821.161	24.5035903
821.335	24.47939422
821.509	24.48128907
821.682	24.48941951
821.856	24.51955659
822.03	24.52875496
822.204	24.51279175
822.378	24.5381651
822.552	24.53571735
822.726	24.54826158
822.9	24.55043215
823.073	24.57498072
823.247	24.57130867
823.421	24.59183113
823.595	24.59891998
823.768	24.60378048
823.942	24.60121304
824.116	24.58258445
824.289	24.60278304
824.463	24.61140915
824.637	24.57360281
824.81	24.55030568
824.984	24.57128108
825.158	24.57024588
825.331	24.55855049
825.505	24.56133881
825.678	24.57937316
825.852	24.61094479
826.025	24.57618453
826.199	24.57104468
826.372	24.5812138
826.546	24.5621066
826.719	24.52379198
826.893	24.56518718
827.066	24.52880701
827.24	24.4961079
827.413	24.48128745
827.586	24.49478289
827.76	24.51344018
827.933	24.5235493
828.106	24.52486836
828.28	24.58222903
828.453	24.582324
828.626	24.5677923
828.799	24.57406812
828.973	24.56893943
829.146	24.55017818
829.319	24.51843679
829.492	24.4959558
829.665	24.52545981
829.839	24.56036754
830.012	24.55580453
830.185	24.54204765
830.358	24.52833234
830.531	24.50114599
830.704	24.50771809
830.877	24.52277601
831.05	24.52014019
831.223	24.50876386
831.396	24.48885878
831.569	24.46687035
831.742	24.45899452
831.915	24.43114988
832.088	24.41181297
832.261	24.44618148
832.434	24.45613556
832.607	24.46019882
832.779	24.4321056
832.952	24.4274949
833.125	24.44385407
833.298	24.43320517
833.471	24.4341464
833.643	24.43359657
833.816	24.47406495
833.989	24.50495022
834.162	24.51291583
834.334	24.53228549
834.507	24.5393308
834.68	24.55047095
834.852	24.52843899
835.025	24.55970367
835.198	24.57064254
835.37	24.5732357
835.543	24.58567534
835.715	24.60797317
835.888	24.60295748
836.061	24.59886244
836.233	24.60862734
836.406	24.62322979
836.578	24.63178671
836.751	24.62262661
836.923	24.61154094
837.095	24.56059012
837.268	24.56659655
837.44	24.59168721
837.613	24.58736015
837.785	24.6023346
837.957	24.58680088
838.13	24.56406115
838.302	24.55752156
838.474	24.56813226
838.647	24.50657471
838.819	24.51026
838.991	24.47820616
839.163	24.46031242
839.336	24.4037009
839.508	24.4076743
839.68	24.38635812
839.852	24.36625935
840.024	24.35646108
840.196	24.37099072
840.368	24.35348479
840.541	24.38584541
840.713	24.41338203
840.885	24.41074418
841.057	24.36746185
841.229	24.37594286
841.401	24.35251485
841.573	24.38385184
841.745	24.36896391
841.917	24.33421617
842.089	24.3230216
842.261	24.35253493
842.432	24.33595685
842.604	24.34376269
842.776	24.32806431
842.948	24.36313026
843.12	24.342549
843.292	24.36089106
843.464	24.35540813
843.635	24.38816755
843.807	24.35880421
843.979	24.38036685
844.151	24.31657454
844.322	24.33793123
844.494	24.34006754
844.666	24.25858327
844.837	24.20573516
845.009	24.19123282
845.181	24.12540804
845.352	24.15741446
845.524	24.17223079
845.695	24.16684501
845.867	24.18538241
846.039	24.21831664
846.21	24.23026337
846.382	24.22204882
846.553	24.27526551
846.725	24.24809323
846.896	24.2711673
847.068	24.23278862
847.239	24.20202405
847.41	24.24878404
847.582	24.2135571
847.753	24.22649834
847.925	24.18779215
848.096	24.2103057
848.267	24.25713979
848.439	24.3071875
848.61	24.31794874
848.781	24.36093244
848.952	24.38208053
849.124	24.43393476
849.295	24.50107767
849.466	24.50674356
849.637	24.43553101
849.808	24.44764903
849.98	24.43874274
850.151	24.37450837
850.322	24.40182147
850.493	24.34809683
850.664	24.39804813
850.835	24.36355057
851.006	24.29327831
851.177	24.31223463
851.348	24.28822307
851.519	24.26595464
851.69	24.18896157
851.861	24.25578856
852.032	24.26486142
852.203	24.27125921
852.374	24.25233839
852.545	24.26239301
852.716	24.23881119
852.887	24.19654002
853.057	24.14616902
853.228	24.20685339
853.399	24.17373052
853.57	24.19029908
853.741	24.20423342
853.911	24.18185432
854.082	24.12233378
854.253	24.16110116
854.424	24.19296619
854.594	24.231599
854.765	24.23082326
854.936	24.2710582
855.106	24.33506953
855.277	24.39549929
855.447	24.38063221
855.618	24.3997054
855.789	24.35382707
855.959	24.36939656
856.13	24.32274256
856.3	24.30280235
856.471	24.26256418
856.641	24.27786685
856.812	24.24138936
856.982	24.25437774
857.153	24.25606622
857.323	24.2715266
857.493	24.29581999
857.664	24.39591325
857.834	24.31283557
858.004	24.2995362
858.175	24.30219843
858.345	24.31869839
858.515	24.29283461
858.686	24.20571624
858.856	24.17204488
859.026	24.16532667
859.196	24.02261449
859.367	24.07812706
859.537	24.04336287
859.707	24.00855931
859.877	24.06601549
860.047	24.00999528
860.217	24.00351795
860.387	23.96244714
860.558	23.97061716
860.728	23.97072473
860.898	23.97224719
861.068	23.93460645
861.238	23.95532486
861.408	23.8980919
861.578	23.87057112
861.748	23.81806104
861.918	23.80074831
862.088	23.79411426
862.257	23.84999295
862.427	23.77776154
862.597	23.80682196
862.767	23.89638003
862.937	23.88437183
863.107	23.93986673
863.277	23.94993141
863.446	23.94217922
863.616	24.01210452
863.786	24.00626766
863.956	24.05090002
864.125	24.04571025
864.295	24.00425945
864.465	23.94056275
864.634	23.87352972
864.804	23.86317085
864.974	23.91392453
865.143	24.00965673
865.313	24.05862905
865.482	24.05933568
865.652	24.10002933
865.822	24.02561045
865.991	24.06196775
866.161	24.02854915
866.33	24.01576746
866.5	24.06986497
866.669	24.07186897
866.838	24.03725063
867.008	23.91699153
867.177	23.97311121
867.347	23.97964184
867.516	23.9999104
867.685	23.99573106
867.855	24.01573672
868.024	23.99369402
868.193	24.11620079
868.363	24.08784002
868.532	24.10905536
868.701	24.01605804
868.87	23.95411037
869.04	23.99595099
869.209	23.98104065
869.378	24.06664767
869.547	24.05107695
869.716	23.97645238
869.885	24.05301158
870.055	24.01023873
870.224	23.97187443
870.393	24.11530027
870.562	24.17420514
870.731	24.09336521
870.9	24.0687424
871.069	24.10627317
871.238	24.1436852
871.407	24.14334198
871.576	24.21072814
871.745	24.18028749
871.914	24.28870967
872.083	24.31208555
872.251	24.34077523
872.42	24.29572128
872.589	24.14694313
872.758	24.14894989
872.927	24.09517854
873.096	24.18376866
873.264	24.23243057
873.433	24.17381921
873.602	24.11688704
873.771	24.16070017
873.939	23.98143075
874.108	23.9639145
874.277	23.95615673
874.445	24.00354555
874.614	23.88272645
874.783	23.80795222
874.951	23.75388515
875.12	23.66540943
875.288	23.68165703
875.457	23.48078375
875.625	23.45513625
875.794	23.52367688
875.962	23.50112047
876.131	23.52783569
876.299	23.49319678
876.468	23.47980756
876.636	23.43086448
876.805	23.42603303
876.973	23.36522299
877.141	23.51357714
877.31	23.38818196
877.478	23.52354338
877.647	23.48783401
877.815	23.52669783
877.983	23.44963534
878.151	23.39866914
878.32	23.4600083
878.488	23.54032803
878.656	23.54880933
878.824	23.41276617
878.992	23.48648134
879.161	23.55964755
879.329	23.43858719
879.497	23.5663329
879.665	23.67605006
879.833	23.69384827
880.001	23.63526539
880.169	23.46146331
880.337	23.39143625
880.505	23.40833802
880.673	23.18950201
880.841	23.1931696
881.009	23.11918449
881.177	22.92796602
881.345	22.98002804
881.513	23.03795849
881.681	23.04974002
881.849	22.9222541
882.017	23.01999379
882.185	23.19485754
882.352	23.13830544
882.52	22.93651249
882.688	22.76535708
882.856	22.75705645
883.024	22.69175291
883.191	22.66159871
883.359	22.54061683
883.527	22.35232052
883.694	22.47162871
883.862	22.33559506
884.03	22.24158886
884.197	22.1422691
884.365	22.32719673
884.533	22.04561525
884.7	22.32503797
884.868	22.17948718
885.035	21.92513424
885.203	21.92761639
885.37	21.93956346
885.538	21.673933
885.705	21.42561566
885.873	21.45429134
886.04	21.51961944
886.208	21.49223459
886.375	21.39933407
886.542	21.27200105
886.71	21.02713771
886.877	21.05372016
