Data from claw3_Reflection_09-00-14-353.txt Node
Date: Wed Dec 06 09:00:14 AEST 2023
User: uqkchene_local
Spectrometer: USB4E02642
Trigger mode: 4
Integration Time (sec): 1.700000E-2
Scans to average: 10
Electric dark correction enabled: true
Nonlinearity correction enabled: false
Boxcar width: 10
XAxis mode: Wavelengths
Number of Pixels in Spectrum: 3648
>>>>>Begin Spectral Data<<<<<
179.217	29.76231485
179.432	13.36032389
179.647	-43.35173106
179.862	7.73042616
180.077	160
180.293	115.46052632
180.508	484.89795918
180.723	-57.14285714
180.938	72.49774572
181.153	87.49022674
181.368	58.1264482
181.583	58.03884858
181.798	61.03062534
182.013	65.43488058
182.228	61.35426367
182.443	59.14042859
182.658	51.43393472
182.873	55.22090261
183.088	51.72558569
183.303	47.62276524
183.518	51.97318405
183.733	52.44685782
183.948	52.26069494
184.162	50.23212082
184.377	51.77206005
184.592	54.59040712
184.807	58.52997864
185.022	58.68448611
185.237	57.15331473
185.452	58.76448905
185.667	56.74471932
185.882	60.31559434
186.096	58.96504965
186.311	60.3230623
186.526	59.07305577
186.741	60.60324395
186.956	61.73266632
187.17	66.62546941
187.385	65.94537915
187.6	67.25360491
187.815	68.79901145
188.03	66.36131334
188.244	65.86786006
188.459	68.13911161
188.674	70.03347402
188.889	70.75531346
189.103	72.4122997
189.318	68.95413735
189.533	67.80663283
189.747	65.45025328
189.962	64.79250335
190.177	66.89362594
190.391	62.79412512
190.606	67.63663298
190.821	67.1268074
191.035	68.82043576
191.25	69.78242553
191.465	66.41562484
191.679	64.61742366
191.894	65.83187827
192.109	65.83930779
192.323	66.45151968
192.538	67.70336059
192.752	70.87722613
192.967	68.81821163
193.181	67.04990097
193.396	67.53271655
193.611	66.55151487
193.825	65.54720209
194.04	66.05719433
194.254	68.54090271
194.469	67.63450043
194.683	65.70106792
194.898	70.76280599
195.112	71.75831341
195.327	70.59033829
195.541	70.24458299
195.756	69.71968286
195.97	70.84704804
196.184	70.35954038
196.399	68.011052
196.613	67.34344321
196.828	65.8871206
197.042	65.49101262
197.257	64.76463399
197.471	62.74674154
197.685	64.92711013
197.9	63.61906304
198.114	62.53186066
198.328	61.82851027
198.543	61.10674227
198.757	56.93498583
198.971	58.4024406
199.186	59.34844797
199.4	57.30341791
199.614	55.1286993
199.829	55.33992738
200.043	54.61401401
200.257	52.30116825
200.471	52.43121794
200.686	53.05732219
200.9	51.05296745
201.114	52.57402082
201.328	52.15659724
201.543	51.52968681
201.757	46.48357393
201.971	48.98315164
202.185	47.51820508
202.399	48.22094857
202.614	46.51781175
202.828	47.06964621
203.042	48.16317246
203.256	48.61343756
203.47	47.57349943
203.684	47.87801779
203.899	48.17274515
204.113	46.36873556
204.327	46.28451667
204.541	47.95098808
204.755	49.6682038
204.969	52.39119767
205.183	53.98800769
205.397	56.38792315
205.611	56.54434594
205.825	58.28487812
206.039	59.34041196
206.253	62.52686018
206.467	60.61587138
206.681	61.92702772
206.895	62.91097293
207.109	66.59972479
207.323	68.02111419
207.537	67.63012223
207.751	67.61171262
207.965	70.53086557
208.179	71.79603058
208.393	70.56792162
208.607	72.95813571
208.821	74.04144111
209.035	71.83356366
209.249	73.28381052
209.463	70.12323748
209.677	70.35570197
209.891	69.99887678
210.104	69.92342223
210.318	69.67595225
210.532	69.24575138
210.746	69.8166264
210.96	72.22026948
211.174	70.12056546
211.387	68.33326793
211.601	65.32923862
211.815	66.57594961
212.029	67.09439471
212.243	70.1660291
212.456	67.37411073
212.67	64.82175227
212.884	64.77126477
213.098	61.99759699
213.311	62.67885379
213.525	61.87820489
213.739	61.4067649
213.953	61.66910908
214.166	59.69839564
214.38	60.87575383
214.594	60.00076649
214.807	59.34609675
215.021	58.31819061
215.235	58.75399962
215.448	58.25874695
215.662	59.37512406
215.876	59.75431528
216.089	60.51695147
216.303	59.76629035
216.516	60.53455921
216.73	59.46524064
216.944	59.77611645
217.157	58.91615778
217.371	58.69978653
217.584	59.91537823
217.798	58.33892816
218.011	60.91968118
218.225	62.60662567
218.439	63.6499174
218.652	65.03242648
218.866	64.22819599
219.079	64.97018822
219.293	63.6829729
219.506	65.43824323
219.719	63.25215176
219.933	60.51177996
220.146	60.26927237
220.36	59.75695864
220.573	61.19419684
220.787	62.6886705
221	62.27114456
221.214	61.55713148
221.427	61.77169363
221.64	64.52605268
221.854	63.63813003
222.067	64.05383704
222.28	64.70061163
222.494	63.37108182
222.707	61.73779889
222.92	59.29985719
223.134	57.70327824
223.347	55.60195122
223.56	56.30664208
223.774	56.16771553
223.987	54.60446565
224.2	57.32003021
224.414	58.29113672
224.627	59.76328987
224.84	60.17324501
225.053	60.16493089
225.267	56.18465181
225.48	56.44256099
225.693	56.22993542
225.906	57.22545551
226.119	56.7172202
226.333	58.20945568
226.546	57.92694233
226.759	57.76959988
226.972	56.9025416
227.185	55.89410773
227.398	55.86815858
227.612	54.54480364
227.825	57.34802351
228.038	57.21094873
228.251	59.10220076
228.464	58.15375158
228.677	59.63055417
228.89	61.73869514
229.103	59.94804853
229.316	60.1332317
229.529	58.1335645
229.743	60.82464049
229.956	61.41747894
230.169	62.97353144
230.382	62.14353379
230.595	60.10960859
230.808	60.11335815
231.021	60.37839132
231.234	60.24722136
231.447	61.29216695
231.66	61.28785612
231.872	64.75011057
232.085	65.63171722
232.298	65.44780983
232.511	65.32597896
232.724	64.50776318
232.937	65.62879234
233.15	64.27524051
233.363	63.40098466
233.576	62.00705578
233.789	61.43003136
234.002	62.77838179
234.214	59.25152306
234.427	59.86825883
234.64	61.48823676
234.853	62.77011288
235.066	66.44029024
235.279	65.12044663
235.491	64.53710918
235.704	63.42361646
235.917	62.99631192
236.13	63.0907702
236.342	60.68872837
236.555	59.69199526
236.768	58.20274158
236.981	58.12943829
237.193	57.40199536
237.406	56.61891117
237.619	55.98071907
237.832	55.41721497
238.044	57.50689878
238.257	59.12647799
238.47	58.27150456
238.682	60.8686807
238.895	59.83983643
239.108	57.00091871
239.32	55.27580759
239.533	52.96407895
239.746	53.21334112
239.958	52.35897255
240.171	54.67906523
240.383	55.94395846
240.596	56.15553772
240.808	56.81405624
241.021	57.89975349
241.234	58.84330203
241.446	59.01946986
241.659	57.21381347
241.871	59.58997119
242.084	59.94546828
242.296	60.24073305
242.509	59.39343687
242.721	57.54212398
242.934	58.92376398
243.146	57.55349932
243.359	56.0444092
243.571	57.19712558
243.784	58.21342347
243.996	60.37320915
244.208	60.91041633
244.421	59.56720192
244.633	58.33683734
244.846	55.75039854
245.058	55.98999262
245.27	55.7155972
245.483	55.77319251
245.695	54.70354694
245.907	55.00398533
246.12	56.85967324
246.332	55.47398455
246.544	55.49988831
246.757	53.6697694
246.969	53.59164839
247.181	54.44305804
247.394	53.03303508
247.606	54.08809384
247.818	55.86062335
248.03	55.71492759
248.243	56.33996359
248.455	52.29416306
248.667	52.43312605
248.879	55.46531838
249.092	54.81603696
249.304	55.83847822
249.516	54.36031858
249.728	53.56765778
249.94	53.91722224
250.153	54.06274063
250.365	53.92119947
250.577	53.98529663
250.789	53.31303415
251.001	52.09327884
251.213	53.93624605
251.425	52.94664692
251.637	53.86103662
251.85	53.47339213
252.062	52.4277551
252.274	50.42860402
252.486	49.88280623
252.698	49.60484803
252.91	52.48077598
253.122	51.53397687
253.334	50.4145937
253.546	50.11363273
253.758	50.37789856
253.97	52.23091151
254.182	51.78496835
254.394	49.83043183
254.606	50.19974666
254.818	50.21103844
255.03	50.18846898
255.242	51.72380115
255.454	53.5253129
255.666	53.44310884
255.877	54.71100813
256.089	56.18042784
256.301	56.4029325
256.513	58.44037562
256.725	59.46130666
256.937	60.93754986
257.149	60.11429293
257.361	58.21924216
257.572	59.01011584
257.784	58.07438868
257.996	59.72594109
258.208	61.17996106
258.42	58.95708353
258.631	58.47550477
258.843	61.57978574
259.055	61.41172772
259.267	59.94347299
259.479	59.36962033
259.69	57.24756965
259.902	55.72366191
260.114	53.7828793
260.325	53.60182039
260.537	50.83224595
260.749	52.55568018
260.961	52.26333554
261.172	52.61499887
261.384	51.18078048
261.596	50.25118941
261.807	51.41799832
262.019	51.18160243
262.23	50.71499266
262.442	51.26287521
262.654	48.74103775
262.865	51.95483936
263.077	52.25328009
263.288	50.47339425
263.5	50.68363518
263.712	52.2898132
263.923	52.33179301
264.135	55.11712718
264.346	55.79515718
264.558	57.15622389
264.769	58.606843
264.981	59.65907239
265.192	56.63448549
265.404	55.2798118
265.615	54.56639789
265.827	54.06053341
266.038	53.97098677
266.25	53.33916138
266.461	52.24639283
266.673	53.91892311
266.884	51.38485558
267.095	51.1641167
267.307	47.80957851
267.518	49.47063873
267.73	49.35689771
267.941	49.36440006
268.152	48.5416862
268.364	50.13143185
268.575	50.12558632
268.786	49.19137057
268.998	47.75655397
269.209	46.73105274
269.42	47.24073905
269.632	49.55569709
269.843	48.95992993
270.054	49.67183311
270.265	50.496175
270.477	51.89241521
270.688	52.69064483
270.899	55.45374288
271.11	56.48145298
271.322	57.86194408
271.533	58.77813896
271.744	59.9021638
271.955	57.63081181
272.166	56.74221046
272.378	57.18865964
272.589	56.27682242
272.8	55.52827043
273.011	53.4591755
273.222	55.15893
273.433	58.09104085
273.644	59.2706334
273.856	58.00737579
274.067	57.74806841
274.278	58.77135254
274.489	58.81637264
274.7	58.59024624
274.911	58.72487991
275.122	58.19746752
275.333	57.03894694
275.544	56.91026229
275.755	57.29403276
275.966	57.12446006
276.177	57.35122044
276.388	57.3110469
276.599	58.48088062
276.81	58.07536456
277.021	58.42412932
277.232	56.73898213
277.443	57.4664223
277.654	57.48327872
277.865	57.74597692
278.076	55.75912591
278.287	56.77514877
278.497	55.72065801
278.708	56.27947697
278.919	54.61071075
279.13	54.25929683
279.341	52.16320066
279.552	51.78544478
279.763	52.17602871
279.973	49.2460787
280.184	47.25198443
280.395	47.12032659
280.606	45.85630524
280.817	47.05953643
281.027	45.0420365
281.238	45.04997552
281.449	45.79825856
281.66	47.56642989
281.87	47.57792074
282.081	46.77414548
282.292	45.98635506
282.503	47.18652456
282.713	47.74288921
282.924	47.47712129
283.135	46.03326324
283.345	47.04026973
283.556	46.72049789
283.767	47.80361072
283.977	46.71172
284.188	45.56518972
284.399	48.45585271
284.609	47.58992124
284.82	48.00663992
285.03	49.51362672
285.241	49.16176672
285.451	51.83688159
285.662	52.23538508
285.873	51.09308401
286.083	49.91102959
286.294	50.00412939
286.504	48.87550528
286.715	47.26587052
286.925	47.03192619
287.136	46.76706993
287.346	47.40285968
287.557	48.26885588
287.767	47.96123455
287.978	48.77890817
288.188	48.56915957
288.399	50.47952342
288.609	49.99342053
288.819	46.87443611
289.03	49.1800778
289.24	47.41546441
289.451	47.37088623
289.661	47.48100808
289.871	46.79454942
290.082	45.46209515
290.292	46.29520278
290.502	46.15349275
290.713	45.04920532
290.923	44.80823407
291.133	45.52971911
291.344	44.86599
291.554	43.27868852
291.764	42.91852552
291.974	42.85855804
292.185	41.54860158
292.395	40.29910689
292.605	40.65390486
292.815	39.43415168
293.026	38.96025228
293.236	39.13934779
293.446	37.84062038
293.656	38.0581047
293.866	35.88852852
294.077	35.53154111
294.287	34.35312089
294.497	34.06060442
294.707	33.11354564
294.917	32.32023721
295.127	31.13982313
295.337	31.23998187
295.548	30.854585
295.758	30.08319073
295.968	29.85400567
296.178	29.28591127
296.388	28.03975009
296.598	28.0212872
296.808	27.75458817
297.018	26.83484116
297.228	26.30079693
297.438	25.95824853
297.648	25.83779461
297.858	25.55525959
298.068	24.72049757
298.278	24.42765298
298.488	24.16714483
298.698	24.0143582
298.908	23.52910578
299.118	23.36005936
299.328	23.16240156
299.538	23.27340614
299.748	22.84204075
299.957	22.51880775
300.167	22.35697845
300.377	21.97176371
300.587	21.55997207
300.797	21.35687852
301.007	21.31389737
301.217	21.14999151
301.426	21.1120255
301.636	21.02801049
301.846	20.96886317
302.056	20.80291586
302.266	20.66208272
302.475	20.62381681
302.685	20.52877943
302.895	20.30402374
303.105	20.11469292
303.314	20.13569895
303.524	19.91841293
303.734	19.87321564
303.944	19.73284822
304.153	19.61546879
304.363	19.47103596
304.573	19.40694258
304.782	19.35039147
304.992	19.4470087
305.202	19.42904435
305.411	19.29139633
305.621	19.22445237
305.831	19.1878129
306.04	19.13429365
306.25	19.08416691
306.459	19.01703912
306.669	18.98989563
306.878	19.00281493
307.088	18.9568029
307.298	18.9169377
307.507	18.89978128
307.717	18.84580899
307.926	18.81738538
308.136	18.74016291
308.345	18.75971575
308.555	18.73942338
308.764	18.77564656
308.974	18.7239433
309.183	18.73327181
309.392	18.67021689
309.602	18.66515478
309.811	18.67084937
310.021	18.65586972
310.23	18.59349493
310.44	18.56834344
310.649	18.55483909
310.858	18.51846573
311.068	18.44925811
311.277	18.39765247
311.486	18.42102572
311.696	18.43852637
311.905	18.42010435
312.114	18.45162742
312.324	18.48776383
312.533	18.48302172
312.742	18.46027021
312.952	18.43940328
313.161	18.43229649
313.37	18.43729435
313.579	18.42866895
313.789	18.43459141
313.998	18.43130716
314.207	18.4306252
314.416	18.41553271
314.625	18.43419123
314.835	18.4398891
315.044	18.41174838
315.253	18.43305965
315.462	18.44134809
315.671	18.43898507
315.88	18.42136375
316.09	18.41051483
316.299	18.43027438
316.508	18.39107022
316.717	18.39734716
316.926	18.39551436
317.135	18.39450587
317.344	18.38552025
317.553	18.35820497
317.762	18.34779552
317.971	18.34809687
318.18	18.33117417
318.389	18.33794793
318.598	18.33404098
318.807	18.34177473
319.016	18.33720762
319.225	18.33662875
319.434	18.34266444
319.643	18.33053804
319.852	18.36069045
320.061	18.34809972
320.27	18.35123573
320.479	18.36102617
320.688	18.33857128
320.897	18.34289278
321.105	18.32236196
321.314	18.3503473
321.523	18.35451996
321.732	18.38689556
321.941	18.40058036
322.15	18.40636314
322.359	18.41323211
322.567	18.42190757
322.776	18.40761432
322.985	18.39799487
323.194	18.40237407
323.403	18.40472872
323.611	18.39291893
323.82	18.40226744
324.029	18.42910762
324.237	18.43074297
324.446	18.45979724
324.655	18.47463586
324.864	18.4749515
325.072	18.49532121
325.281	18.49990655
325.49	18.5203657
325.698	18.49663692
325.907	18.50383273
326.116	18.50331147
326.324	18.51007551
326.533	18.52388426
326.741	18.53775943
326.95	18.54555376
327.159	18.5783026
327.367	18.61060024
327.576	18.61771932
327.784	18.61457848
327.993	18.65027214
328.201	18.65184545
328.41	18.64449211
328.618	18.63884727
328.827	18.64666046
329.035	18.66412129
329.244	18.67852329
329.452	18.69249838
329.661	18.70728201
329.869	18.70656626
330.078	18.74244361
330.286	18.75852162
330.495	18.78728963
330.703	18.78738393
330.911	18.7887575
331.12	18.79585599
331.328	18.80711398
331.537	18.79304453
331.745	18.81061269
331.953	18.82292762
332.162	18.85838564
332.37	18.8495791
332.578	18.88047131
332.787	18.89970924
332.995	18.93947804
333.203	18.94175315
333.411	18.95860345
333.62	18.9499766
333.828	18.93754074
334.036	18.94722201
334.244	18.97843002
334.453	18.99183358
334.661	18.99986522
334.869	18.99234827
335.077	19.03780067
335.285	19.06920313
335.494	19.08372214
335.702	19.091554
335.91	19.11165382
336.118	19.11047927
336.326	19.12026611
336.534	19.14179508
336.742	19.16503611
336.951	19.19105903
337.159	19.20066616
337.367	19.20120451
337.575	19.25180515
337.783	19.25980922
337.991	19.28336064
338.199	19.31972498
338.407	19.34979218
338.615	19.35095415
338.823	19.37719236
339.031	19.39541277
339.239	19.4224059
339.447	19.42646223
339.655	19.44723012
339.863	19.47880635
340.071	19.51193143
340.279	19.53749813
340.487	19.54748403
340.695	19.56717169
340.903	19.57286471
341.11	19.60343484
341.318	19.59688455
341.526	19.61122793
341.734	19.62744338
341.942	19.61711811
342.15	19.63765168
342.358	19.67804454
342.565	19.6887834
342.773	19.70056821
342.981	19.72889312
343.189	19.73711681
343.397	19.76344638
343.604	19.77906944
343.812	19.79994743
344.02	19.8107368
344.228	19.81759264
344.435	19.81727017
344.643	19.82283285
344.851	19.85202104
345.058	19.88518815
345.266	19.90259067
345.474	19.90765056
345.681	19.93288363
345.889	19.96800906
346.097	19.99595007
346.304	20.00443655
346.512	20.02273279
346.72	20.01726188
346.927	20.05982151
347.135	20.07155901
347.342	20.08463094
347.55	20.09521596
347.758	20.09874102
347.965	20.11563462
348.173	20.11360452
348.38	20.13355038
348.588	20.14764716
348.795	20.17443231
349.003	20.20032974
349.21	20.21815114
349.418	20.22190329
349.625	20.23464602
349.833	20.25532769
350.04	20.2608069
350.247	20.26399153
350.455	20.27120093
350.662	20.30001988
350.87	20.31428112
351.077	20.33673714
351.284	20.33154817
351.492	20.33759765
351.699	20.34620046
351.906	20.37335581
352.114	20.39015303
352.321	20.40874039
352.528	20.43615959
352.736	20.44692004
352.943	20.45385047
353.15	20.4693903
353.358	20.4906498
353.565	20.50264223
353.772	20.5142602
353.979	20.54070501
354.187	20.54992939
354.394	20.5535849
354.601	20.57845258
354.808	20.58905228
355.015	20.59721427
355.223	20.61656485
355.43	20.62837245
355.637	20.63907378
355.844	20.67100691
356.051	20.68785776
356.258	20.69899727
356.465	20.70731815
356.673	20.69747484
356.88	20.6981323
357.087	20.70626314
357.294	20.73269817
357.501	20.75005957
357.708	20.75048108
357.915	20.75362229
358.122	20.76241411
358.329	20.7441419
358.536	20.74803187
358.743	20.78594142
358.95	20.78343171
359.157	20.79589152
359.364	20.80116423
359.571	20.79684432
359.778	20.81328008
359.985	20.81980815
360.192	20.82099495
360.399	20.82520923
360.606	20.83368839
360.812	20.83593712
361.019	20.85439103
361.226	20.86525919
361.433	20.87611461
361.64	20.87788104
361.847	20.88214778
362.054	20.89112194
362.26	20.91304863
362.467	20.92913557
362.674	20.94695955
362.881	20.96262239
363.088	20.97225432
363.294	20.98637169
363.501	20.98910081
363.708	20.99875691
363.915	21.01034143
364.121	21.03249814
364.328	21.05661788
364.535	21.07283274
364.741	21.07816077
364.948	21.08395425
365.155	21.092285
365.361	21.11140341
365.568	21.1342009
365.775	21.14510769
365.981	21.14716446
366.188	21.15406032
366.395	21.16726977
366.601	21.17062243
366.808	21.18446589
367.014	21.1893763
367.221	21.19689373
367.427	21.19595837
367.634	21.19894074
367.84	21.22409435
368.047	21.24580462
368.254	21.25760781
368.46	21.246271
368.667	21.24830243
368.873	21.2575245
369.079	21.27827239
369.286	21.2825708
369.492	21.30893236
369.699	21.31799551
369.905	21.32379646
370.112	21.33701501
370.318	21.35390384
370.524	21.36739881
370.731	21.37870734
370.937	21.40236044
371.144	21.40469851
371.35	21.43152883
371.556	21.45679314
371.763	21.47651148
371.969	21.48806042
372.175	21.49805238
372.381	21.50900602
372.588	21.51568059
372.794	21.53084953
373	21.53202704
373.206	21.54330014
373.413	21.55793183
373.619	21.56908936
373.825	21.57314638
374.031	21.57158007
374.238	21.5770388
374.444	21.59021383
374.65	21.59347791
374.856	21.60286412
375.062	21.61034069
375.268	21.61573536
375.475	21.62667896
375.681	21.63665472
375.887	21.64251913
376.093	21.64620223
376.299	21.64934036
376.505	21.66269343
376.711	21.68240918
376.917	21.70465919
377.123	21.72069458
377.329	21.74552117
377.535	21.75488913
377.741	21.76262783
377.947	21.78064904
378.153	21.79313002
378.359	21.81494299
378.565	21.83050333
378.771	21.84395728
378.977	21.87560987
379.183	21.90072038
379.389	21.92962125
379.595	21.93626574
379.801	21.96175262
380.007	21.97440142
380.213	21.98794803
380.418	22.00772446
380.624	22.04452019
380.83	22.0509916
381.036	22.05309528
381.242	22.05937939
381.448	22.07430728
381.653	22.09119274
381.859	22.110225
382.065	22.12199669
382.271	22.13862724
382.476	22.15325156
382.682	22.16736491
382.888	22.18760538
383.094	22.19132605
383.299	22.19181415
383.505	22.1950541
383.711	22.19630904
383.916	22.20747037
384.122	22.21760777
384.328	22.2356481
384.533	22.24785023
384.739	22.26171912
384.945	22.26878155
385.15	22.28634997
385.356	22.30491793
385.562	22.31850152
385.767	22.33794996
385.973	22.35975194
386.178	22.38144763
386.384	22.39641411
386.589	22.4065271
386.795	22.42816164
387	22.45257354
387.206	22.45973529
387.411	22.4645877
387.617	22.49196392
387.822	22.5007464
388.028	22.52132769
388.233	22.53090695
388.439	22.5451343
388.644	22.55122303
388.85	22.56479166
389.055	22.56584307
389.26	22.56970106
389.466	22.58435249
389.671	22.59564999
389.877	22.60472907
390.082	22.61401303
390.287	22.6183475
390.493	22.62986451
390.698	22.66365372
390.903	22.6882358
391.109	22.70507726
391.314	22.71142608
391.519	22.72504881
391.724	22.76107329
391.93	22.77232567
392.135	22.78838944
392.34	22.80485555
392.545	22.8322908
392.751	22.85257777
392.956	22.87572954
393.161	22.89576592
393.366	22.91625631
393.571	22.92757068
393.776	22.94117763
393.982	22.9583458
394.187	22.97174345
394.392	22.98729905
394.597	22.99577788
394.802	23.00757686
395.007	23.0076405
395.212	23.02234459
395.417	23.03613334
395.622	23.05557884
395.827	23.08171854
396.032	23.09278074
396.237	23.1073789
396.442	23.12904229
396.647	23.13643452
396.852	23.14202798
397.057	23.14291188
397.262	23.15298862
397.467	23.1604038
397.672	23.17771054
397.877	23.19957535
398.082	23.21818509
398.287	23.23610401
398.492	23.24719313
398.697	23.25380213
398.902	23.2664753
399.107	23.2811611
399.311	23.29789526
399.516	23.30632819
399.721	23.32433206
399.926	23.33109716
400.131	23.3296758
400.336	23.34353493
400.54	23.35797124
400.745	23.37135737
400.95	23.3873206
401.155	23.40870144
401.359	23.42339784
401.564	23.43370487
401.769	23.4475274
401.974	23.4660744
402.178	23.49044882
402.383	23.50562914
402.588	23.5172881
402.792	23.53895946
402.997	23.56868748
403.202	23.58549136
403.406	23.59693102
403.611	23.60321681
403.815	23.6195816
404.02	23.62525228
404.225	23.64209853
404.429	23.67120822
404.634	23.68259145
404.838	23.68783
405.043	23.70321426
405.247	23.70877446
405.452	23.72079246
405.656	23.7378982
405.861	23.76733899
406.065	23.78246541
406.27	23.79592416
406.474	23.8007182
406.679	23.8020853
406.883	23.81700866
407.088	23.83823093
407.292	23.84179137
407.497	23.8624109
407.701	23.87854465
407.905	23.889857
408.11	23.89524648
408.314	23.89923481
408.518	23.912578
408.723	23.91672782
408.927	23.93444015
409.131	23.94865264
409.336	23.97215446
409.54	23.99504455
409.744	24.00589588
409.949	24.02565698
410.153	24.0289862
410.357	24.03867322
410.561	24.04473453
410.766	24.06769381
410.97	24.08674176
411.174	24.10120701
411.378	24.10353401
411.582	24.11357595
411.787	24.13338042
411.991	24.14460751
412.195	24.16009904
412.399	24.17625825
412.603	24.20151326
412.807	24.21072252
413.011	24.22162806
413.215	24.22463699
413.419	24.24238203
413.624	24.2294573
413.828	24.24353215
414.032	24.25887346
414.236	24.2763335
414.44	24.28519114
414.644	24.303692
414.848	24.32332601
415.052	24.32042447
415.256	24.33482593
415.46	24.34709962
415.664	24.36643029
415.868	24.38576749
416.072	24.39037166
416.275	24.40335913
416.479	24.41899291
416.683	24.43796777
416.887	24.45140855
417.091	24.46650383
417.295	24.48707141
417.499	24.51077331
417.703	24.52296105
417.906	24.54406418
418.11	24.55817338
418.314	24.57115991
418.518	24.57629883
418.722	24.5980316
418.925	24.60789762
419.129	24.62416683
419.333	24.65192682
419.537	24.65947312
419.74	24.66237669
419.944	24.67795025
420.148	24.69656509
420.352	24.70310757
420.555	24.71714747
420.759	24.72690869
420.963	24.73991025
421.166	24.75201402
421.37	24.76528197
421.573	24.77154897
421.777	24.79081532
421.981	24.81158296
422.184	24.83149135
422.388	24.83991149
422.591	24.85833858
422.795	24.86780267
422.999	24.88060535
423.202	24.88696891
423.406	24.8983236
423.609	24.91675363
423.813	24.93296951
424.016	24.94714334
424.22	24.95546456
424.423	24.96011866
424.627	24.99042223
424.83	25.00165215
425.033	25.02485778
425.237	25.03487547
425.44	25.04416438
425.644	25.06789353
425.847	25.09059553
426.05	25.09356512
426.254	25.10084075
426.457	25.10506605
426.66	25.12988115
426.864	25.1385052
427.067	25.15842385
427.27	25.16602166
427.474	25.1868056
427.677	25.19203009
427.88	25.20894259
428.084	25.23074863
428.287	25.24691648
428.49	25.26034999
428.693	25.28727046
428.896	25.28467858
429.1	25.30078937
429.303	25.30403414
429.506	25.32028406
429.709	25.34128013
429.912	25.35534533
430.116	25.36740292
430.319	25.38515155
430.522	25.3891642
430.725	25.41240136
430.928	25.40731776
431.131	25.41434949
431.334	25.41970099
431.537	25.43721346
431.74	25.44334178
431.943	25.45889075
432.146	25.46332365
432.349	25.47420106
432.552	25.4918689
432.755	25.50155027
432.958	25.4956442
433.161	25.51456427
433.364	25.53062025
433.567	25.55519253
433.77	25.56620981
433.973	25.58547754
434.176	25.58658245
434.379	25.60696189
434.582	25.61633165
434.785	25.63146888
434.988	25.64642766
435.19	25.6700614
435.393	25.68224936
435.596	25.70673426
435.799	25.72308653
436.002	25.74668744
436.205	25.76722273
436.407	25.77205214
436.61	25.7851943
436.813	25.79668696
437.016	25.81804218
437.218	25.84411246
437.421	25.86336648
437.624	25.87534702
437.827	25.88801178
438.029	25.91091639
438.232	25.91525987
438.435	25.93148132
438.637	25.9378615
438.84	25.94516685
439.043	25.96406277
439.245	25.97332481
439.448	25.98508723
439.65	26.00331319
439.853	26.00953995
440.056	26.01976004
440.258	26.03928859
440.461	26.04445177
440.663	26.05936488
440.866	26.06869088
441.068	26.08256035
441.271	26.08264697
441.473	26.08243838
441.676	26.08119683
441.878	26.08810665
442.081	26.10224681
442.283	26.11517305
442.486	26.12761206
442.688	26.13804527
442.89	26.13799524
443.093	26.15483879
443.295	26.16404944
443.498	26.16500977
443.7	26.17514898
443.902	26.18176309
444.105	26.18525604
444.307	26.18308712
444.509	26.18068962
444.712	26.1894155
444.914	26.19487094
445.116	26.2022323
445.319	26.21176317
445.521	26.23807016
445.723	26.25086334
445.925	26.26388763
446.128	26.27055727
446.33	26.27178283
446.532	26.2652807
446.734	26.27398252
446.936	26.284437
447.139	26.28814769
447.341	26.29238304
447.543	26.30806656
447.745	26.31852856
447.947	26.32359561
448.149	26.34600261
448.351	26.36907055
448.553	26.38049304
448.755	26.39266551
448.958	26.40841341
449.16	26.41547029
449.362	26.42599753
449.564	26.42898757
449.766	26.42020374
449.968	26.42195979
450.17	26.42843441
450.372	26.42730996
450.574	26.42497866
450.776	26.42690227
450.978	26.41819605
451.179	26.43185275
451.381	26.45247409
451.583	26.45943287
451.785	26.4586373
451.987	26.47118949
452.189	26.47701029
452.391	26.46853518
452.593	26.46645596
452.795	26.47186203
452.996	26.47115606
453.198	26.47541775
453.4	26.47953811
453.602	26.47959178
453.804	26.47668232
454.005	26.48967211
454.207	26.49473206
454.409	26.4962448
454.611	26.50601168
454.812	26.52591395
455.014	26.54033058
455.216	26.55879431
455.417	26.55771032
455.619	26.55676677
455.821	26.56026309
456.022	26.56437752
456.224	26.55771796
456.426	26.56531067
456.627	26.57978249
456.829	26.58285368
457.031	26.59242608
457.232	26.60758006
457.434	26.59889847
457.635	26.62096137
457.837	26.61759596
458.038	26.6404196
458.24	26.63322018
458.441	26.64862266
458.643	26.65437942
458.844	26.66115036
459.046	26.66109258
459.247	26.66548588
459.449	26.67693382
459.65	26.68334716
459.852	26.69972297
460.053	26.70475063
460.254	26.70345528
460.456	26.71815072
460.657	26.71665361
460.859	26.71057804
461.06	26.71748437
461.261	26.72990831
461.463	26.72897756
461.664	26.74024264
461.865	26.73017948
462.066	26.74101959
462.268	26.73163618
462.469	26.7503261
462.67	26.75244633
462.872	26.76034176
463.073	26.76322324
463.274	26.7676906
463.475	26.76785275
463.676	26.77349525
463.878	26.77064086
464.079	26.76031328
464.28	26.7668104
464.481	26.78072282
464.682	26.77872807
464.883	26.79170817
465.085	26.80409954
465.286	26.80844016
465.487	26.80621596
465.688	26.80704917
465.889	26.82406508
466.09	26.84384244
466.291	26.84841293
466.492	26.85250306
466.693	26.85513146
466.894	26.8655481
467.095	26.88044422
467.296	26.89136295
467.497	26.90418697
467.698	26.91768523
467.899	26.92237768
468.1	26.92951478
468.301	26.94837472
468.502	26.96229839
468.703	26.96920046
468.903	26.98667473
469.104	26.99098534
469.305	26.99597717
469.506	27.01191738
469.707	27.02523549
469.908	27.03826934
470.109	27.03708376
470.309	27.03782077
470.51	27.05049656
470.711	27.0582631
470.912	27.07017255
471.112	27.07527711
471.313	27.07540552
471.514	27.08128161
471.715	27.08800592
471.915	27.09472609
472.116	27.10862985
472.317	27.11740988
472.517	27.11942288
472.718	27.12799174
472.919	27.13627201
473.119	27.13820986
473.32	27.14412877
473.521	27.15571083
473.721	27.15183894
473.922	27.1578854
474.122	27.16669435
474.323	27.17764469
474.523	27.18056308
474.724	27.18819515
474.925	27.20638872
475.125	27.21500434
475.326	27.22955023
475.526	27.23939235
475.727	27.24741245
475.927	27.26076606
476.127	27.26975589
476.328	27.27024186
476.528	27.28450177
476.729	27.29392662
476.929	27.30309043
477.13	27.30723544
477.33	27.30986949
477.53	27.31406778
477.731	27.31606579
477.931	27.32941124
478.131	27.33378025
478.332	27.33780194
478.532	27.33677458
478.732	27.33897632
478.933	27.34387014
479.133	27.3448012
479.333	27.35034522
479.533	27.35346515
479.734	27.35672625
479.934	27.36814937
480.134	27.37121814
480.334	27.37339061
480.534	27.38019336
480.735	27.3847667
480.935	27.39182255
481.135	27.39115559
481.335	27.40186648
481.535	27.4188236
481.735	27.43489283
481.935	27.44942146
482.136	27.45567498
482.336	27.46544169
482.536	27.47294293
482.736	27.48387847
482.936	27.49654348
483.136	27.50941079
483.336	27.51691737
483.536	27.52137307
483.736	27.53005543
483.936	27.53920127
484.136	27.53662635
484.336	27.54040157
484.536	27.55586035
484.736	27.56402045
484.936	27.5718412
485.135	27.58326141
485.335	27.58897963
485.535	27.59539397
485.735	27.5999946
485.935	27.60786557
486.135	27.61406594
486.335	27.61996726
486.534	27.6183601
486.734	27.62918447
486.934	27.64950071
487.134	27.66469074
487.334	27.666793
487.533	27.67921497
487.733	27.6967264
487.933	27.70650373
488.133	27.72151346
488.332	27.73642749
488.532	27.74567989
488.732	27.75787603
488.931	27.77225156
489.131	27.78110242
489.331	27.78390366
489.53	27.79883087
489.73	27.80368997
489.93	27.80954006
490.129	27.82920095
490.329	27.83411408
490.528	27.84486288
490.728	27.85808292
490.928	27.86295951
491.127	27.85558632
491.327	27.86107878
491.526	27.87278713
491.726	27.87406653
491.925	27.87044866
492.125	27.87686128
492.324	27.88394255
492.524	27.886076
492.723	27.8936059
492.922	27.89897056
493.122	27.89891545
493.321	27.89941323
493.521	27.90540158
493.72	27.90328267
493.919	27.90788731
494.119	27.91948318
494.318	27.91137775
494.517	27.92059476
494.717	27.92896583
494.916	27.93348108
495.115	27.93989442
495.315	27.94506377
495.514	27.95306312
495.713	27.95446331
495.912	27.95886614
496.112	27.96845245
496.311	27.96640567
496.51	27.965064
496.709	27.97032886
496.908	27.96832939
497.108	27.97037548
497.307	27.97945773
497.506	27.98783346
497.705	27.99693839
497.904	28.01580395
498.103	28.02845904
498.302	28.03297208
498.501	28.04385096
498.701	28.04843909
498.9	28.05035351
499.099	28.06110746
499.298	28.07387009
499.497	28.0864782
499.696	28.08226428
499.895	28.09910136
500.094	28.11581595
500.293	28.1213143
500.492	28.13014658
500.691	28.1422455
500.89	28.15557643
501.088	28.16700091
501.287	28.17423073
501.486	28.17751861
501.685	28.18515561
501.884	28.19577653
502.083	28.19048516
502.282	28.19430612
502.481	28.19726365
502.679	28.20071352
502.878	28.20302499
503.077	28.20980621
503.276	28.20902126
503.475	28.21056789
503.673	28.21936079
503.872	28.22689871
504.071	28.22524
504.27	28.23092862
504.468	28.23396788
504.667	28.24441754
504.866	28.2508514
505.064	28.2535918
505.263	28.26103052
505.462	28.26554424
505.66	28.27312478
505.859	28.28534166
506.058	28.29147724
506.256	28.30929719
506.455	28.31342112
506.653	28.3240986
506.852	28.32518573
507.05	28.32961408
507.249	28.33161817
507.448	28.34464611
507.646	28.35300039
507.845	28.35045295
508.043	28.35677397
508.242	28.36462165
508.44	28.36075416
508.638	28.36544996
508.837	28.36563805
509.035	28.36567421
509.234	28.37704004
509.432	28.38409304
509.631	28.38251884
509.829	28.3803708
510.027	28.38399463
510.226	28.37993668
510.424	28.37987319
510.622	28.39059295
510.821	28.39650412
511.019	28.40036733
511.217	28.4147019
511.415	28.42137605
511.614	28.42139329
511.812	28.41985586
512.01	28.425011
512.208	28.43419331
512.407	28.43610386
512.605	28.4483748
512.803	28.46075223
513.001	28.46289017
513.199	28.46584216
513.398	28.46886222
513.596	28.46691357
513.794	28.47708008
513.992	28.48597417
514.19	28.48955412
514.388	28.50868233
514.586	28.51390572
514.784	28.51548479
514.982	28.51696092
515.18	28.53486871
515.378	28.54093308
515.576	28.5525791
515.774	28.56760397
515.972	28.5765639
516.17	28.59439316
516.368	28.60224487
516.566	28.60981868
516.764	28.61609433
516.962	28.61930676
517.16	28.63533317
517.358	28.64796835
517.556	28.65593669
517.754	28.67530119
517.952	28.69197222
518.149	28.70203927
518.347	28.71080944
518.545	28.71200583
518.743	28.71600086
518.941	28.72320689
519.138	28.74064427
519.336	28.74243031
519.534	28.74605016
519.732	28.76459941
519.929	28.7708691
520.127	28.78282947
520.325	28.78739027
520.523	28.7916451
520.72	28.80088344
520.918	28.80251004
521.116	28.81318706
521.313	28.81825082
521.511	28.82881429
521.709	28.8421626
521.906	28.84647658
522.104	28.84714086
522.301	28.86163322
522.499	28.87095919
522.696	28.87976174
522.894	28.89035741
523.092	28.90811432
523.289	28.90887601
523.487	28.91890257
523.684	28.92500688
523.882	28.92420842
524.079	28.93531916
524.276	28.93457797
524.474	28.94113985
524.671	28.9559657
524.869	28.96169185
525.066	28.97210183
525.264	28.97376101
525.461	28.98037485
525.658	28.97931982
525.856	28.97987971
526.053	28.98207125
526.25	28.98811181
526.448	28.98636667
526.645	28.98963277
526.842	28.99016832
527.039	28.99023557
527.237	28.9936312
527.434	29.00116876
527.631	29.00872471
527.828	29.01771779
528.026	29.02317882
528.223	29.02393104
528.42	29.03487133
528.617	29.04233621
528.814	29.03989377
529.012	29.04844061
529.209	29.05539244
529.406	29.05872291
529.603	29.06234705
529.8	29.0754113
529.997	29.08398081
530.194	29.09647653
530.391	29.1031536
530.588	29.11613638
530.785	29.11383187
530.982	29.11991881
531.179	29.13816533
531.376	29.13794978
531.573	29.13726388
531.77	29.1380152
531.967	29.13521047
532.164	29.13715713
532.361	29.14016043
532.558	29.14367244
532.755	29.14215341
532.952	29.14858861
533.149	29.14673836
533.346	29.1547271
533.543	29.16687446
533.739	29.1770237
533.936	29.17001717
534.133	29.17328193
534.33	29.16478126
534.527	29.16573039
534.723	29.16556796
534.92	29.17509942
535.117	29.18057655
535.314	29.17646852
535.51	29.18015902
535.707	29.18239183
535.904	29.18901384
536.1	29.20753207
536.297	29.20995396
536.494	29.21557335
536.69	29.2171137
536.887	29.22295753
537.084	29.22992683
537.28	29.23246702
537.477	29.22624662
537.674	29.22607037
537.87	29.21977407
538.067	29.22364096
538.263	29.22175726
538.46	29.23205651
538.656	29.23373043
538.853	29.23136528
539.049	29.24618508
539.246	29.2458715
539.442	29.24577272
539.639	29.25190985
539.835	29.25844402
540.032	29.26059138
540.228	29.25188874
540.424	29.25255847
540.621	29.26054097
540.817	29.26948411
541.014	29.27452735
541.21	29.27766741
541.406	29.28632791
541.603	29.29579492
541.799	29.30313281
541.995	29.31682001
542.191	29.32942124
542.388	29.33460584
542.584	29.34657781
542.78	29.35820566
542.976	29.36906714
543.173	29.36415163
543.369	29.3738599
543.565	29.37826554
543.761	29.37934022
543.957	29.38017463
544.154	29.37979919
544.35	29.38495385
544.546	29.39135998
544.742	29.39107258
544.938	29.39308693
545.134	29.39682089
545.33	29.39094635
545.526	29.39913037
545.722	29.40545161
545.919	29.40489482
546.115	29.40430773
546.311	29.40176328
546.507	29.41262698
546.703	29.41045108
546.899	29.41516922
547.095	29.41434457
547.29	29.4169992
547.486	29.41480862
547.682	29.42320421
547.878	29.43444348
548.074	29.44943877
548.27	29.45826673
548.466	29.45600111
548.662	29.46063867
548.858	29.46131925
549.053	29.46347556
549.249	29.46555452
549.445	29.48348962
549.641	29.48606873
549.837	29.48893035
550.032	29.49572263
550.228	29.50135194
550.424	29.51237797
550.62	29.50795215
550.815	29.51239513
551.011	29.50638023
551.207	29.50892598
551.402	29.51295198
551.598	29.5167225
551.794	29.51415866
551.989	29.51121107
552.185	29.50974339
552.381	29.50658099
552.576	29.51667048
552.772	29.51297779
552.967	29.52068137
553.163	29.52516977
553.359	29.52522734
553.554	29.52390853
553.75	29.53216586
553.945	29.53262726
554.141	29.53935591
554.336	29.53803697
554.532	29.53827255
554.727	29.53308007
554.922	29.53143439
555.118	29.53745397
555.313	29.5385443
555.509	29.54001842
555.704	29.5403406
555.899	29.54120635
556.095	29.54274196
556.29	29.55110394
556.486	29.55694147
556.681	29.56483901
556.876	29.57128328
557.071	29.56999264
557.267	29.58642082
557.462	29.58677153
557.657	29.59358393
557.853	29.59293087
558.048	29.59396044
558.243	29.60237024
558.438	29.60153705
558.633	29.60088461
558.829	29.61439629
559.024	29.61886173
559.219	29.61764638
559.414	29.62113046
559.609	29.62746977
559.804	29.64027253
559.999	29.6441238
560.194	29.64896718
560.39	29.64712319
560.585	29.65514261
560.78	29.6518756
560.975	29.65531753
561.17	29.65024482
561.365	29.64001104
561.56	29.64840602
561.755	29.63906327
561.95	29.63541257
562.145	29.6364864
562.34	29.62802676
562.535	29.63620511
562.729	29.65257651
562.924	29.65521177
563.119	29.65646862
563.314	29.65849421
563.509	29.65912948
563.704	29.66075769
563.899	29.66320719
564.093	29.67313189
564.288	29.67530331
564.483	29.67590996
564.678	29.6796391
564.873	29.69372138
565.067	29.69751612
565.262	29.71251965
565.457	29.70331186
565.652	29.70832165
565.846	29.71598058
566.041	29.71894722
566.236	29.73061491
566.43	29.73730717
566.625	29.75026797
566.82	29.73137045
567.014	29.74023553
567.209	29.75117594
567.404	29.76485704
567.598	29.76727119
567.793	29.76586479
567.987	29.76673898
568.182	29.76110521
568.376	29.76045167
568.571	29.76346357
568.765	29.7601591
568.96	29.75361753
569.154	29.75528061
569.349	29.74620587
569.543	29.76486953
569.738	29.76422955
569.932	29.76289565
570.127	29.76805318
570.321	29.76401333
570.515	29.75978618
570.71	29.75462194
570.904	29.76536607
571.098	29.76484967
571.293	29.75982889
571.487	29.76275279
571.681	29.76906311
571.876	29.76337104
572.07	29.7640972
572.264	29.77499928
572.458	29.78436727
572.653	29.78488534
572.847	29.7895071
573.041	29.79489039
573.235	29.80132163
573.43	29.80022501
573.624	29.80175909
573.818	29.79974581
574.012	29.81129676
574.206	29.82146547
574.4	29.83615948
574.594	29.84064678
574.788	29.83326967
574.983	29.84393421
575.177	29.84554137
575.371	29.85082964
575.565	29.85164142
575.759	29.86549615
575.953	29.87713822
576.147	29.8817353
576.341	29.88994979
576.535	29.8950936
576.729	29.89538621
576.923	29.90329654
577.117	29.90964882
577.31	29.91112523
577.504	29.93146425
577.698	29.94046181
577.892	29.95317973
578.086	29.95294247
578.28	29.9562311
578.474	29.95182064
578.668	29.96536949
578.861	29.98174631
579.055	29.98295294
579.249	29.98320568
579.443	29.98832496
579.636	29.98888711
579.83	29.9815543
580.024	29.99139797
580.218	30.00823861
580.411	30.00978138
580.605	30.01297327
580.799	30.03073269
580.992	30.03000836
581.186	30.03797018
581.38	30.0537624
581.573	30.05458001
581.767	30.05258518
581.961	30.06027821
582.154	30.07227523
582.348	30.06962899
582.541	30.08120424
582.735	30.08555097
582.928	30.09838916
583.122	30.11027493
583.315	30.12490125
583.509	30.13875451
583.702	30.15203886
583.896	30.17167452
584.089	30.1902859
584.283	30.19301618
584.476	30.19895036
584.67	30.21419328
584.863	30.22437381
585.056	30.2510441
585.25	30.2652558
585.443	30.27175362
585.636	30.28711528
585.83	30.31152663
586.023	30.32089337
586.216	30.33375864
586.41	30.35154981
586.603	30.36863149
586.796	30.38223519
586.989	30.38588971
587.183	30.39347975
587.376	30.40672009
587.569	30.40833218
587.762	30.42283085
587.955	30.43039586
588.149	30.43328664
588.342	30.44211091
588.535	30.45407688
588.728	30.46385024
588.921	30.47201193
589.114	30.46973525
589.307	30.46553039
589.5	30.47373894
589.693	30.49629616
589.886	30.49465312
590.08	30.50407619
590.273	30.51222375
590.466	30.5255559
590.659	30.53469886
590.852	30.53748511
591.044	30.56116864
591.237	30.58662522
591.43	30.59177625
591.623	30.61509439
591.816	30.63323201
592.009	30.65006871
592.202	30.66596973
592.395	30.67227314
592.588	30.68888718
592.781	30.69728203
592.973	30.71441535
593.166	30.73341975
593.359	30.75455294
593.552	30.76618167
593.745	30.76553145
593.937	30.77806085
594.13	30.79538293
594.323	30.8083827
594.515	30.81736456
594.708	30.81940539
594.901	30.8395263
595.094	30.83686601
595.286	30.83988849
595.479	30.85947362
595.672	30.87082775
595.864	30.87487771
596.057	30.87889557
596.249	30.88333167
596.442	30.89352882
596.635	30.89630017
596.827	30.90309266
597.02	30.9068039
597.212	30.90377342
597.405	30.90592541
597.597	30.91668066
597.79	30.91972926
597.982	30.93937287
598.175	30.95206742
598.367	30.9607898
598.559	30.9669234
598.752	30.99107479
598.944	31.00357392
599.137	31.01895512
599.329	31.02834567
599.521	31.03296755
599.714	31.02677931
599.906	31.03596346
600.098	31.0553523
600.291	31.07099975
600.483	31.08270908
600.675	31.09932732
600.868	31.11309802
601.06	31.1262818
601.252	31.14246069
601.444	31.15660915
601.637	31.17412892
601.829	31.19035375
602.021	31.19091543
602.213	31.20664383
602.405	31.21904569
602.597	31.23353471
602.789	31.23192275
602.982	31.23841113
603.174	31.24914443
603.366	31.25968494
603.558	31.27206958
603.75	31.30367688
603.942	31.31033707
604.134	31.30564729
604.326	31.31625726
604.518	31.32877961
604.71	31.34210458
604.902	31.3509754
605.094	31.35451054
605.286	31.36749086
605.478	31.3779718
605.67	31.38235386
605.862	31.39553137
606.054	31.41119477
606.246	31.40037149
606.437	31.41222435
606.629	31.42858981
606.821	31.43814651
607.013	31.45401441
607.205	31.45651897
607.397	31.46457445
607.588	31.47600433
607.78	31.48342669
607.972	31.49741916
608.164	31.51125633
608.355	31.52827471
608.547	31.5493163
608.739	31.5576262
608.93	31.57797502
609.122	31.59175794
609.314	31.59576945
609.505	31.61041719
609.697	31.62472262
609.889	31.63733107
610.08	31.64553415
610.272	31.66837013
610.463	31.68879823
610.655	31.70078899
610.847	31.71367659
611.038	31.72323304
611.23	31.75074391
611.421	31.76132103
611.613	31.78073872
611.804	31.78120907
611.996	31.79175665
612.187	31.80352178
612.379	31.81432565
612.57	31.82434572
612.761	31.82855922
612.953	31.82883494
613.144	31.83809402
613.336	31.86000978
613.527	31.88151026
613.718	31.89297302
613.91	31.90436502
614.101	31.92379863
614.292	31.93263267
614.483	31.94188186
614.675	31.94966495
614.866	31.96494392
615.057	31.9708368
615.248	31.978419
615.44	31.98916064
615.631	32.00037892
615.822	32.0131383
616.013	32.0193808
616.204	32.0334018
616.396	32.03541975
616.587	32.02930772
616.778	32.04979771
616.969	32.05981027
617.16	32.06863252
617.351	32.07823133
617.542	32.08447267
617.733	32.10162518
617.924	32.12607081
618.115	32.12301458
618.306	32.12884405
618.497	32.11854139
618.688	32.12200786
618.879	32.11998216
619.07	32.1250937
619.261	32.12467286
619.452	32.14182181
619.643	32.13951564
619.834	32.14947632
620.025	32.16121778
620.216	32.16568877
620.407	32.17158902
620.597	32.18188595
620.788	32.18623209
620.979	32.18834958
621.17	32.19993516
621.361	32.2083508
621.551	32.20694473
621.742	32.20045359
621.933	32.19115425
622.124	32.19603595
622.314	32.2157872
622.505	32.23543771
622.696	32.25662724
622.886	32.27687402
623.077	32.28990983
623.268	32.30412843
623.458	32.3113189
623.649	32.32761807
623.84	32.33494822
624.03	32.35373635
624.221	32.36306427
624.411	32.35800948
624.602	32.36783703
624.792	32.38028608
624.983	32.40264288
625.173	32.41945948
625.364	32.43318873
625.554	32.43947918
625.745	32.4565026
625.935	32.46660872
626.126	32.47994335
626.316	32.48743451
626.507	32.4943468
626.697	32.49139596
626.887	32.49767288
627.078	32.50697355
627.268	32.50697992
627.458	32.50503844
627.649	32.48966275
627.839	32.50809597
628.029	32.50127025
628.22	32.51763365
628.41	32.54154169
628.6	32.55573737
628.79	32.55932368
628.981	32.56881774
629.171	32.56654987
629.361	32.57623037
629.551	32.58567071
629.741	32.59377666
629.932	32.59973427
630.122	32.60777759
630.312	32.61550221
630.502	32.62802958
630.692	32.63725308
630.882	32.64735909
631.072	32.65996688
631.262	32.65791564
631.452	32.65885902
631.642	32.67584042
631.832	32.67352497
632.022	32.67871826
632.212	32.67872968
632.402	32.68995278
632.592	32.700342
632.782	32.71569679
632.972	32.71828648
633.162	32.73619921
633.352	32.73455087
633.542	32.73733929
633.732	32.74097848
633.922	32.75293003
634.111	32.77500618
634.301	32.77761523
634.491	32.78725228
634.681	32.79405073
634.871	32.80282381
635.06	32.80891794
635.25	32.82083005
635.44	32.82684825
635.63	32.84225339
635.819	32.84702181
636.009	32.86642506
636.199	32.88698974
636.388	32.8858744
636.578	32.89255414
636.768	32.88789356
636.957	32.89133884
637.147	32.90010071
637.337	32.91207123
637.526	32.9194168
637.716	32.93294842
637.905	32.93098339
638.095	32.9219027
638.284	32.9247246
638.474	32.92147671
638.663	32.91820246
638.853	32.93140206
639.042	32.94091173
639.232	32.95341522
639.421	32.977368
639.611	32.98115054
639.8	32.99149859
639.99	32.99136166
640.179	32.99029258
640.368	33.00104095
640.558	33.00552795
640.747	33.0217581
640.936	33.0494403
641.126	33.04430902
641.315	33.04332268
641.504	33.04742036
641.694	33.0449472
641.883	33.05152803
642.072	33.05957101
642.261	33.05978637
642.451	33.07082485
642.64	33.09870595
642.829	33.09578263
643.018	33.08951761
643.207	33.11209182
643.397	33.11787088
643.586	33.12615132
643.775	33.13154369
643.964	33.14473242
644.153	33.15125315
644.342	33.1705377
644.531	33.17858964
644.72	33.17720575
644.909	33.17223808
645.098	33.18603455
645.287	33.18820491
645.476	33.20755995
645.665	33.22770258
645.854	33.25583426
646.043	33.26317353
646.232	33.28471437
646.421	33.29104332
646.61	33.30471656
646.799	33.31801959
646.988	33.34094883
647.177	33.34236584
647.365	33.35594028
647.554	33.36424364
647.743	33.38041288
647.932	33.38272616
648.121	33.40638264
648.309	33.41175148
648.498	33.42972455
648.687	33.45284641
648.876	33.45741783
649.064	33.45997787
649.253	33.48171399
649.442	33.48371856
649.63	33.4875172
649.819	33.47562485
650.008	33.49213001
650.196	33.49859412
650.385	33.50507794
650.574	33.50089915
650.762	33.50572801
650.951	33.49830743
651.139	33.5060582
651.328	33.51100277
651.516	33.51866774
651.705	33.52817862
651.893	33.54718927
652.082	33.54708726
652.27	33.54398147
652.459	33.54792294
652.647	33.55415424
652.836	33.56275518
653.024	33.58337425
653.213	33.5885185
653.401	33.60484711
653.589	33.60902605
653.778	33.61832296
653.966	33.63175243
654.154	33.63872983
654.343	33.66492866
654.531	33.67790037
654.719	33.68738725
654.908	33.70180709
655.096	33.71488276
655.284	33.71342997
655.472	33.73190061
655.661	33.72959337
655.849	33.74336328
656.037	33.74662638
656.225	33.76254576
656.413	33.77101887
656.601	33.78619894
656.79	33.80829038
656.978	33.82326208
657.166	33.84110314
657.354	33.86719621
657.542	33.88786528
657.73	33.89715363
657.918	33.90369064
658.106	33.92779144
658.294	33.94117352
658.482	33.96291246
658.67	33.98284596
658.858	33.99129429
659.046	34.00849298
659.234	34.04172378
659.422	34.06124214
659.61	34.0751576
659.798	34.07859672
659.986	34.09216491
660.173	34.1172668
660.361	34.11742238
660.549	34.11143914
660.737	34.11695886
660.925	34.11306378
661.113	34.11942633
661.3	34.10241631
661.488	34.09968888
661.676	34.14171759
661.864	34.14808971
662.051	34.16254229
662.239	34.17458367
662.427	34.16434268
662.614	34.1709881
662.802	34.20485596
662.99	34.20278762
663.177	34.19281856
663.365	34.18584307
663.553	34.19857962
663.74	34.20463597
663.928	34.23071564
664.115	34.21938028
664.303	34.24247162
664.49	34.2689428
664.678	34.27636815
664.866	34.29642199
665.053	34.31019051
665.24	34.3456282
665.428	34.3600168
665.615	34.34913043
665.803	34.37314694
665.99	34.37631382
666.178	34.36508364
666.365	34.38501019
666.552	34.39350126
666.74	34.38840598
666.927	34.41145229
667.114	34.42276147
667.302	34.44203791
667.489	34.45706046
667.676	34.46905154
667.864	34.45623947
668.051	34.45657592
668.238	34.46009423
668.425	34.47302545
668.613	34.4835242
668.8	34.4969763
668.987	34.5030284
669.174	34.50014279
669.361	34.51386437
669.548	34.5248288
669.736	34.5366371
669.923	34.538734
670.11	34.56973079
670.297	34.58360567
670.484	34.60430634
670.671	34.61730292
670.858	34.63407651
671.045	34.65481641
671.232	34.67472042
671.419	34.70021347
671.606	34.70855458
671.793	34.73113879
671.98	34.76532442
672.167	34.78059611
672.354	34.78228524
672.541	34.79180338
672.728	34.78695404
672.915	34.79444101
673.101	34.80737212
673.288	34.80654809
673.475	34.8182494
673.662	34.8117175
673.849	34.81063088
674.035	34.80252016
674.222	34.7986732
674.409	34.79229945
674.596	34.80535116
674.783	34.80596022
674.969	34.81371653
675.156	34.80714136
675.343	34.80017687
675.529	34.79806885
675.716	34.79650365
675.903	34.8113438
676.089	34.8135677
676.276	34.82478932
676.462	34.83171398
676.649	34.83111735
676.836	34.83285741
677.022	34.85543591
677.209	34.87614223
677.395	34.88897349
677.582	34.89553156
677.768	34.9208135
677.955	34.93961548
678.141	34.95437314
678.328	34.95327075
678.514	34.9533618
678.701	34.95810421
678.887	34.97213127
679.073	34.98424224
679.26	34.99415492
679.446	35.03791188
679.632	35.05371183
679.819	35.04752672
680.005	35.0694405
680.191	35.07658589
680.378	35.08306477
680.564	35.13314302
680.75	35.14963538
680.936	35.15618231
681.123	35.17010486
681.309	35.17950734
681.495	35.19909126
681.681	35.20780597
681.867	35.2060006
682.054	35.22682145
682.24	35.24046235
682.426	35.25655315
682.612	35.25924849
682.798	35.26380075
682.984	35.27412486
683.17	35.28919234
683.356	35.29404361
683.542	35.31765915
683.728	35.33623038
683.914	35.34886265
684.1	35.36156814
684.286	35.37256553
684.472	35.3661852
684.658	35.38140166
684.844	35.37179598
685.03	35.37188829
685.216	35.38264939
685.402	35.39819842
685.588	35.42645979
685.774	35.44996379
685.96	35.44898396
686.145	35.48286845
686.331	35.50122847
686.517	35.50439294
686.703	35.51940423
686.889	35.53674277
687.074	35.52736303
687.26	35.52835501
687.446	35.54188293
687.631	35.55489793
687.817	35.57546423
688.003	35.58381205
688.189	35.59934575
688.374	35.6171667
688.56	35.65597564
688.745	35.68232894
688.931	35.70748468
689.117	35.71233645
689.302	35.70897575
689.488	35.70950694
689.673	35.70725893
689.859	35.73251428
690.044	35.73295911
690.23	35.73409463
690.415	35.78152053
690.601	35.80141828
690.786	35.80611793
690.972	35.83964475
691.157	35.86053103
691.343	35.86740534
691.528	35.88185245
691.713	35.88428101
691.899	35.90898488
692.084	35.93020397
692.269	35.9367089
692.455	35.92260984
692.64	35.92223066
692.825	35.94235464
693.011	35.95540886
693.196	35.98924387
693.381	35.99680283
693.566	36.02952934
693.752	36.05187235
693.937	36.06392644
694.122	36.08255249
694.307	36.08142352
694.492	36.08031795
694.678	36.09839573
694.863	36.1048312
695.048	36.09756338
695.233	36.08658767
695.418	36.09690268
695.603	36.10178697
695.788	36.10713929
695.973	36.10049465
696.158	36.1135256
696.343	36.10678826
696.528	36.12745965
696.713	36.11746834
696.898	36.13228566
697.083	36.12514222
697.268	36.14814201
697.453	36.15957522
697.638	36.14633329
697.823	36.17118584
698.008	36.18258557
698.192	36.19589108
698.377	36.20942702
698.562	36.21805556
698.747	36.25217323
698.932	36.26636155
699.117	36.28882063
699.301	36.30436491
699.486	36.31475525
699.671	36.32712193
699.856	36.3616508
700.04	36.35641434
700.225	36.38957741
700.41	36.41283844
700.594	36.43477522
700.779	36.45579555
700.964	36.49454827
701.148	36.50092896
701.333	36.4928946
701.517	36.52343032
701.702	36.5313477
701.887	36.56195526
702.071	36.58117532
702.256	36.59329591
702.44	36.60204265
702.625	36.58809671
702.809	36.59263668
702.994	36.60734669
703.178	36.62109954
703.362	36.63147361
703.547	36.63900719
703.731	36.63895056
703.916	36.65763517
704.1	36.65642741
704.284	36.65281753
704.469	36.65739474
704.653	36.66273785
704.837	36.67163381
705.022	36.67054976
705.206	36.69090067
705.39	36.68714768
705.575	36.70270987
705.759	36.69762857
705.943	36.68133469
706.127	36.6758076
706.311	36.68498949
706.496	36.69902354
706.68	36.72248593
706.864	36.73179241
707.048	36.72236243
707.232	36.73411729
707.416	36.75315547
707.6	36.76437057
707.785	36.76495488
707.969	36.78119946
708.153	36.78487193
708.337	36.79308704
708.521	36.80483175
708.705	36.79855439
708.889	36.81121507
709.073	36.82311232
709.257	36.8159907
709.441	36.80384366
709.624	36.79401029
709.808	36.82600898
709.992	36.85174437
710.176	36.8601978
710.36	36.87196166
710.544	36.88904243
710.728	36.89401758
710.912	36.89868905
711.095	36.89746576
711.279	36.89251983
711.463	36.90510675
711.647	36.91754296
711.83	36.92713259
712.014	36.93047785
712.198	36.9378884
712.382	36.93778835
712.565	36.93546249
712.749	36.94853875
712.933	36.9308723
713.116	36.95112852
713.3	36.96915029
713.483	36.99388472
713.667	36.97524245
713.851	36.99023987
714.034	37.0084578
714.218	36.99936894
714.401	36.97427914
714.585	36.97125291
714.768	36.97690198
714.952	37.00394295
715.135	37.01908106
715.319	37.01265159
715.502	37.02071577
715.686	37.00717303
715.869	37.00489524
716.052	37.00826898
716.236	36.99998148
716.419	37.01132442
716.602	37.01014047
716.786	37.01110389
716.969	37.01787665
717.152	37.0219078
717.336	36.98760639
717.519	37.00459054
717.702	36.97903662
717.885	36.96276007
718.069	36.97463678
718.252	36.98915536
718.435	36.99126827
718.618	37.01440873
718.801	37.00248472
718.985	36.97961997
719.168	36.98208551
719.351	36.9719168
719.534	36.9621683
719.717	36.97746039
719.9	36.97084001
720.083	36.98700244
720.266	36.9881785
720.449	36.96274122
720.632	36.98278832
720.815	36.98594739
720.998	36.97312484
721.181	36.98997304
721.364	36.9891594
721.547	37.00396807
721.73	37.0112051
721.913	37.0173477
722.096	37.01318775
722.279	37.03213496
722.461	37.01783699
722.644	37.02293789
722.827	37.04817487
723.01	37.03664411
723.193	37.04657401
723.376	37.06302816
723.558	37.0515196
723.741	37.06232653
723.924	37.04435793
724.107	37.05182748
724.289	37.06041989
724.472	37.06523722
724.655	37.06265425
724.837	37.0613791
725.02	37.04734112
725.203	37.04352735
725.385	37.02979214
725.568	37.03255426
725.75	37.01788842
725.933	37.04472106
726.115	37.04086853
726.298	37.03910746
726.481	37.03943047
726.663	36.995533
726.845	37.00310498
727.028	36.99303367
727.21	36.97318578
727.393	36.97524496
727.575	36.96947185
727.758	36.98234009
727.94	36.96637437
728.122	36.97196605
728.305	36.95648613
728.487	36.9428167
728.67	36.9469445
728.852	36.97061494
729.034	36.97968508
729.216	36.98244751
729.399	36.99329137
729.581	36.98888275
729.763	36.9799579
729.945	36.96375609
730.128	36.95374713
730.31	36.94382655
730.492	36.96308154
730.674	36.96224215
730.856	36.97767088
731.039	36.98844246
731.221	36.98616019
731.403	36.98861847
731.585	36.98691714
731.767	36.98876732
731.949	36.98280214
732.131	36.97792574
732.313	36.96715233
732.495	36.96069793
732.677	36.96758109
732.859	36.95058764
733.041	36.94206543
733.223	36.92110933
733.405	36.91134297
733.587	36.88572022
733.769	36.90819489
733.951	36.88835711
734.132	36.87646783
734.314	36.87337386
734.496	36.85118943
734.678	36.8385191
734.86	36.84619781
735.042	36.85231442
735.223	36.84655509
735.405	36.83334226
735.587	36.82503415
735.769	36.82315883
735.95	36.81419656
736.132	36.83648148
736.314	36.84408795
736.495	36.81476487
736.677	36.82179102
736.859	36.82349189
737.04	36.82341541
737.222	36.81300183
737.403	36.8137733
737.585	36.79513141
737.767	36.82246373
737.948	36.81642649
738.13	36.81515423
738.311	36.83380202
738.493	36.82779939
738.674	36.82613085
738.856	36.82249183
739.037	36.81553762
739.219	36.8074316
739.4	36.76600712
739.581	36.77141143
739.763	36.78403157
739.944	36.76705906
740.125	36.75719808
740.307	36.78578693
740.488	36.77997181
740.669	36.76731422
740.851	36.76802265
741.032	36.79858277
741.213	36.79404841
741.395	36.78048792
741.576	36.77103285
741.757	36.79056734
741.938	36.80442467
742.119	36.80145216
742.301	36.80762124
742.482	36.81169343
742.663	36.79008799
742.844	36.79032596
743.025	36.80878118
743.206	36.83930421
743.387	36.84004897
743.568	36.84594372
743.749	36.85200003
743.93	36.85115711
744.111	36.84239151
744.292	36.85976423
744.473	36.89065349
744.654	36.87742615
744.835	36.87241047
745.016	36.88202251
745.197	36.89166015
745.378	36.87985161
745.559	36.87984069
745.74	36.86872497
745.921	36.88128325
746.102	36.87913652
746.282	36.87673048
746.463	36.90125499
746.644	36.90389956
746.825	36.89173592
747.006	36.91161345
747.186	36.92099282
747.367	36.91672632
747.548	36.91633257
747.728	36.92958249
747.909	36.91691866
748.09	36.90480367
748.27	36.8847298
748.451	36.89425313
748.632	36.88738531
748.812	36.89348121
748.993	36.89612719
749.173	36.91165765
749.354	36.91965346
749.535	36.91417623
749.715	36.88826179
749.896	36.87706929
750.076	36.87508944
750.257	36.8773342
750.437	36.88774107
750.618	36.88462932
750.798	36.86979558
750.978	36.86526061
751.159	36.87793341
751.339	36.88569765
751.52	36.88750536
751.7	36.90100999
751.88	36.9009895
752.061	36.89479625
752.241	36.89072823
752.421	36.89184466
752.601	36.89207466
752.782	36.87396944
752.962	36.90380989
753.142	36.88962381
753.322	36.88750943
753.503	36.91466231
753.683	36.94352915
753.863	36.93516141
754.043	36.96141328
754.223	36.96230236
754.403	36.97420371
754.583	36.99718233
754.764	37.00300131
754.944	37.00725026
755.124	37.00903158
755.304	37.01719475
755.484	36.99308743
755.664	36.98415335
755.844	36.98510588
756.024	37.00257096
756.204	37.0145485
756.384	37.0065999
756.564	37.02439993
756.743	36.99048473
756.923	36.99705424
757.103	37.02951016
757.283	37.03010603
757.463	37.01622411
757.643	37.04124662
757.823	37.00119482
758.002	36.97244737
758.182	37.01226659
758.362	37.00164014
758.542	36.98290897
758.721	36.95750237
758.901	36.97084209
759.081	36.95546099
759.261	36.98400783
759.44	36.99815349
759.62	37.02617215
759.8	37.01980508
759.979	37.01715246
760.159	37.00539997
760.338	37.03143284
760.518	37.05624281
760.698	37.05392754
760.877	37.04259401
761.057	37.02411889
761.236	37.03042688
761.416	37.04359888
761.595	37.04755031
761.775	37.06552564
761.954	37.04659528
762.133	37.05426307
762.313	37.07760435
762.492	37.1012832
762.672	37.10853548
762.851	37.12950469
763.03	37.16238686
763.21	37.15487321
763.389	37.14041164
763.568	37.13340947
763.748	37.10939477
763.927	37.12440787
764.106	37.13180954
764.286	37.12754999
764.465	37.13031463
764.644	37.1313314
764.823	37.13829824
765.002	37.14166441
765.182	37.12692926
765.361	37.12553959
765.54	37.14459891
765.719	37.12279223
765.898	37.13281358
766.077	37.11312767
766.256	37.09991606
766.435	37.08890727
766.614	37.07412367
766.793	37.05675663
766.972	37.07522128
767.151	37.07292029
767.33	37.0800336
767.509	37.12461447
767.688	37.12549604
767.867	37.1250955
768.046	37.10567067
768.225	37.10440332
768.404	37.10322179
768.583	37.09735894
768.762	37.10396342
768.94	37.11408336
769.119	37.11308041
769.298	37.12197697
769.477	37.13081715
769.656	37.10466812
769.834	37.12429012
770.013	37.13609726
770.192	37.12324333
770.37	37.1323111
770.549	37.12996274
770.728	37.12629403
770.906	37.14082435
771.085	37.1524623
771.264	37.14008713
771.442	37.15050227
771.621	37.15407851
771.799	37.16740678
771.978	37.16970925
772.157	37.16211281
772.335	37.16207433
772.514	37.16383266
772.692	37.16902138
772.871	37.18486916
773.049	37.16252038
773.228	37.15714656
773.406	37.17613472
773.584	37.17514143
773.763	37.16821227
773.941	37.18952415
774.119	37.18599667
774.298	37.19195271
774.476	37.17742379
774.655	37.16093357
774.833	37.17236499
775.011	37.17109643
775.189	37.15233254
775.368	37.14257124
775.546	37.15019124
775.724	37.15883354
775.902	37.19365082
776.08	37.21953204
776.259	37.20040943
776.437	37.20992163
776.615	37.20415008
776.793	37.20641277
776.971	37.24044605
777.149	37.2576839
777.327	37.25676085
777.505	37.26872157
777.683	37.26658917
777.861	37.27868735
778.04	37.27414176
778.218	37.28857885
778.395	37.32779156
778.573	37.31496593
778.751	37.33036372
778.929	37.36354745
779.107	37.3852415
779.285	37.40369039
779.463	37.41497584
779.641	37.40632138
779.819	37.3776779
779.997	37.41384576
780.174	37.38962046
780.352	37.38383195
780.53	37.3836959
780.708	37.39105192
780.886	37.3855076
781.063	37.40362517
781.241	37.39364786
781.419	37.39302439
781.596	37.40098662
781.774	37.43234238
781.952	37.43315665
782.129	37.42650144
782.307	37.41288806
782.485	37.39519617
782.662	37.39337765
782.84	37.37265317
783.017	37.34958874
783.195	37.31810733
783.372	37.29076467
783.55	37.33973162
783.727	37.3329656
783.905	37.34775469
784.082	37.35149934
784.26	37.38998818
784.437	37.36006799
784.615	37.36728395
784.792	37.38990263
784.969	37.3998978
785.147	37.41992471
785.324	37.37114038
785.501	37.30615865
785.679	37.31559392
785.856	37.31836627
786.033	37.33189283
786.211	37.34259174
786.388	37.32885358
786.565	37.33363402
786.742	37.33433543
786.92	37.35400548
787.097	37.38928862
787.274	37.37029292
787.451	37.35362821
787.628	37.34459116
787.805	37.36779334
787.982	37.34541773
788.16	37.34296391
788.337	37.34813427
788.514	37.33390758
788.691	37.33152537
788.868	37.32292677
789.045	37.36847375
789.222	37.39476895
789.399	37.39421289
789.576	37.40851941
789.753	37.43220868
789.93	37.42549143
790.106	37.41750952
790.283	37.41061002
790.46	37.43329663
790.637	37.4212301
790.814	37.43879244
790.991	37.45695575
791.168	37.49712883
791.344	37.53347353
791.521	37.52771903
791.698	37.53807539
791.875	37.56946445
792.051	37.55735334
792.228	37.54315064
792.405	37.55764118
792.581	37.53772223
792.758	37.55418287
792.935	37.56925551
793.111	37.56203129
793.288	37.57141237
793.465	37.58047063
793.641	37.57936549
793.818	37.64504927
793.994	37.63104989
794.171	37.62109861
794.347	37.63174254
794.524	37.63180695
794.7	37.60594301
794.877	37.58137941
795.053	37.52831571
795.23	37.55814813
795.406	37.56873308
795.583	37.5492864
795.759	37.55619854
795.935	37.56988772
796.112	37.54365371
796.288	37.51605478
796.464	37.48565908
796.641	37.51164445
796.817	37.51423403
796.993	37.50009806
797.169	37.49972745
797.346	37.49601919
797.522	37.48141807
797.698	37.54349478
797.874	37.54115472
798.051	37.55270385
798.227	37.55427461
798.403	37.57090485
798.579	37.58726982
798.755	37.63686456
798.931	37.60410309
799.107	37.59621753
799.283	37.62245985
799.459	37.60345638
799.635	37.63817065
799.811	37.68084529
799.987	37.70627871
800.163	37.70955706
800.339	37.67487074
800.515	37.72593164
800.691	37.72693781
800.867	37.73574806
801.043	37.75298022
801.219	37.75495924
801.395	37.7467875
801.571	37.77705203
801.746	37.79547884
801.922	37.81015914
802.098	37.79187093
802.274	37.78429085
802.45	37.80078983
802.625	37.82859994
802.801	37.79930422
802.977	37.81520556
803.152	37.85459358
803.328	37.82924438
803.504	37.84727225
803.679	37.91675131
803.855	37.86209392
804.031	37.88755348
804.206	37.86703079
804.382	37.87554473
804.557	37.89454967
804.733	37.93754483
804.909	37.90886467
805.084	37.91322572
805.26	37.88377048
805.435	37.87461017
805.61	37.91184759
805.786	37.94357095
805.961	37.98259051
806.137	37.98574045
806.312	37.98373361
806.488	37.99952953
806.663	37.97543878
806.838	37.97869592
807.014	38.01840517
807.189	38.01819514
807.364	38.01570775
807.54	38.11105244
807.715	38.17799356
807.89	38.12347215
808.065	38.08218954
808.241	38.05533522
808.416	38.02857032
808.591	38.09054882
808.766	38.09002346
808.941	38.07749799
809.116	38.11599772
809.291	38.08022584
809.467	38.06571206
809.642	38.03933226
809.817	38.02574299
809.992	38.0283297
810.167	38.03985947
810.342	38.0439987
810.517	38.03095514
810.692	38.00691208
810.867	37.94971827
811.042	37.93415066
811.217	37.9590503
811.392	37.90396748
811.567	37.98639282
811.741	38.0128632
811.916	38.01217979
812.091	38.05988859
812.266	37.98382083
812.441	38.01639562
812.616	38.13509893
812.79	38.11808694
812.965	38.04918341
813.14	38.07767388
813.315	38.02991763
813.489	38.02376485
813.664	38.0164809
813.839	38.00884071
814.013	38.07179173
814.188	38.11568064
814.363	38.00143976
814.537	38.03161834
814.712	38.01071205
814.887	37.98588622
815.061	37.94806177
815.236	37.91862998
815.41	37.91885017
815.585	37.9347235
815.759	37.89933317
815.934	37.95808293
816.108	37.89787507
816.283	37.82996034
816.457	37.91199101
816.631	37.9966867
816.806	38.0105495
816.98	38.02473574
817.155	38.00768551
817.329	38.01170802
817.503	37.98087302
817.678	37.90513821
817.852	37.87843152
818.026	37.93997826
818.201	37.8916337
818.375	37.95995288
818.549	37.9060124
818.723	37.92720346
818.897	37.96771021
819.072	37.96972733
819.246	37.9746979
819.42	37.95544037
819.594	37.95782997
819.768	37.98922891
819.942	38.01033297
820.116	37.85397099
820.29	37.71760894
820.465	37.72448486
820.639	37.7426982
820.813	37.742722
820.987	37.76299641
821.161	37.81538734
821.335	37.8578886
821.509	37.8648896
821.682	37.85077558
821.856	37.93279751
822.03	37.98011998
822.204	38.05143144
822.378	37.94045648
822.552	37.89225268
822.726	37.87310313
822.9	37.87790281
823.073	37.83979394
823.247	37.84061542
823.421	37.84435074
823.595	37.768933
823.768	37.81297983
823.942	37.8205005
824.116	37.80945004
824.289	37.82510319
824.463	37.73494484
824.637	37.70273898
824.81	37.69599352
824.984	37.64577332
825.158	37.62625023
825.331	37.61276687
825.505	37.58528074
825.678	37.44225378
825.852	37.50507491
826.025	37.71065088
826.199	37.67978539
826.372	37.8333472
826.546	37.79727226
826.719	37.89815958
826.893	37.85265604
827.066	37.85073817
827.24	37.90894962
827.413	37.98802215
827.586	38.16825778
827.76	38.10599642
827.933	38.12976738
828.106	38.34926812
828.28	38.34226443
828.453	38.28106218
828.626	38.32027071
828.799	38.31511116
828.973	38.34649971
829.146	38.35400443
829.319	38.39132248
829.492	38.25616215
829.665	38.15270189
829.839	38.17446925
830.012	38.13537955
830.185	38.19915195
830.358	38.11487611
830.531	38.17666247
830.704	38.26798452
830.877	38.28903102
831.05	38.26887929
831.223	38.13165037
831.396	38.10168091
831.569	38.10037696
831.742	37.96239835
831.915	37.9547312
832.088	38.08616765
832.261	38.09914879
832.434	38.1213739
832.607	38.11232145
832.779	38.05041104
832.952	37.95888434
833.125	37.98184049
833.298	38.03221653
833.471	38.0908978
833.643	38.06422399
833.816	37.97441429
833.989	37.96266015
834.162	37.86002422
834.334	37.73532656
834.507	37.78063681
834.68	37.80491969
834.852	37.8099975
835.025	37.89889221
835.198	37.85647485
835.37	37.95990104
835.543	37.97078218
835.715	37.8850426
835.888	37.87664524
836.061	37.8614891
836.233	37.90953165
836.406	37.98259356
836.578	38.07837152
836.751	38.12275176
836.923	38.14389252
837.095	38.20768343
837.268	38.13745331
837.44	38.16841197
837.613	38.04769728
837.785	38.02492258
837.957	38.07631349
838.13	37.87778606
838.302	37.89649816
838.474	37.89743409
838.647	37.94137099
838.819	37.96797552
838.991	37.93254704
839.163	37.93781289
839.336	37.9984175
839.508	38.09126231
839.68	38.06790677
839.852	38.10918388
840.024	38.14651599
840.196	38.1128156
840.368	38.0666668
840.541	38.00030627
840.713	37.79343428
840.885	37.82326913
841.057	37.8175324
841.229	38.05363387
841.401	37.98653874
841.573	37.91804432
841.745	37.9060306
841.917	37.79107944
842.089	37.8780743
842.261	37.86450514
842.432	37.89520182
842.604	37.96791094
842.776	38.01953324
842.948	37.97852646
843.12	37.88564257
843.292	37.89753669
843.464	37.84458921
843.635	37.6994376
843.807	37.84335565
843.979	37.93265664
844.151	37.87590812
844.322	37.79748661
844.494	37.83556503
844.666	37.816267
844.837	37.74915708
845.009	38.02955518
845.181	38.09924791
845.352	38.21251161
845.524	38.27704732
845.695	38.30537349
845.867	38.15820568
846.039	37.98385085
846.21	37.88558142
846.382	37.74708258
846.553	37.76640102
846.725	37.90025646
846.896	37.8972601
847.068	37.92866846
847.239	38.01277
847.41	38.05727307
847.582	37.96798934
847.753	38.09743695
847.925	38.43031439
848.096	38.33218369
848.267	38.5488079
848.439	38.50209932
848.61	38.39194588
848.781	38.36238522
848.952	38.41578501
849.124	38.52757059
849.295	38.18672923
849.466	38.08725093
849.637	38.22885193
849.808	38.22486438
849.98	38.41210213
850.151	38.51045083
850.322	38.43059955
850.493	38.49907324
850.664	38.38992527
850.835	38.43472125
851.006	38.14219145
851.177	38.14207185
851.348	37.95310993
851.519	38.03647342
851.69	38.18323937
851.861	38.11977507
852.032	38.15977773
852.203	38.22891189
852.374	38.26540487
852.545	38.16265523
852.716	38.07103985
852.887	38.26806288
853.057	38.66437963
853.228	38.77346114
853.399	38.83372024
853.57	38.88575713
853.741	38.86071122
853.911	38.64730825
854.082	38.60429509
854.253	38.92855446
854.424	39.06685108
854.594	39.31221424
854.765	39.47003117
854.936	39.39360775
855.106	39.18611345
855.277	39.13295041
855.447	38.94638763
855.618	39.1294708
855.789	39.05962628
855.959	38.86521349
856.13	39.23001309
856.3	39.38426536
856.471	39.50643316
856.641	39.30671694
856.812	39.12294686
856.982	39.02804298
857.153	39.01160079
857.323	38.98323123
857.493	39.06082602
857.664	39.21606094
857.834	39.04433259
858.004	38.58806824
858.175	38.53745042
858.345	38.48342704
858.515	38.91934762
858.686	39.02448118
858.856	38.86239314
859.026	38.96281885
859.196	38.8884837
859.367	38.9584332
859.537	39.22338853
859.707	39.07277037
859.877	38.88983449
860.047	39.04942192
860.217	39.18117831
860.387	39.47341847
860.558	39.53567292
860.728	39.4172739
860.898	39.5564399
861.068	39.52867035
861.238	39.08006379
861.408	38.98593308
861.578	39.53298636
861.748	39.61078336
861.918	39.54594385
862.088	39.49001285
862.257	39.54729127
862.427	40.33574014
862.597	40.46978483
862.767	40.0471282
862.937	40.12370323
863.107	40.2999074
863.277	40.32478437
863.446	39.82005937
863.616	39.69123354
863.786	39.76942067
863.956	39.31924956
864.125	39.15737609
864.295	39.46928847
864.465	39.10532153
864.634	38.9105766
864.804	39.21352949
864.974	39.52710534
865.143	39.43458647
865.313	39.17056569
865.482	39.22132342
865.652	38.97211292
865.822	38.65856589
865.991	37.98896569
866.161	37.92979463
866.33	38.34874288
866.5	38.13705098
866.669	37.79389274
866.838	37.70803579
867.008	38.37045117
867.177	38.27142738
867.347	37.46437981
867.516	37.6864258
867.685	37.75805684
867.855	37.13325973
868.024	37.15400686
868.193	37.44970845
868.363	37.82481528
868.532	37.24457826
868.701	37.35055587
868.87	37.30188475
869.04	37.04744516
869.209	37.29286675
869.378	37.67039264
869.547	37.43881765
869.716	37.50973171
869.885	37.64751573
870.055	37.92678275
870.224	38.26239894
870.393	37.84980437
870.562	38.1962672
870.731	38.47554559
870.9	39.28758609
871.069	39.07507765
871.238	39.20752754
871.407	39.44765636
871.576	39.02780342
871.745	39.3244897
871.914	38.84381034
872.083	38.91612173
872.251	38.94341772
872.42	38.95069415
872.589	39.74103689
872.758	39.40279475
872.927	39.09605739
873.096	39.4489546
873.264	38.66880042
873.433	38.95449293
873.602	38.9641319
873.771	38.70173751
873.939	39.70622969
874.108	39.14717676
874.277	39.07587717
874.445	38.57662664
874.614	39.05643893
874.783	39.05471178
874.951	38.7211494
875.12	39.86639371
875.288	40.49490574
875.457	40.85157711
875.625	40.8529192
875.794	40.44557844
875.962	40.9953054
876.131	40.5650017
876.299	40.50166084
876.468	40.64457685
876.636	41.33238101
876.805	42.08273329
876.973	40.92901082
877.141	40.33672301
877.31	40.37289838
877.478	39.76546872
877.647	40.35566362
877.815	40.09736793
877.983	39.5410878
878.151	39.59479187
878.32	40.29548826
878.488	41.13915426
878.656	41.29169516
878.824	41.20332652
878.992	41.20585809
879.161	41.91336816
879.329	41.19865684
879.497	40.50828126
879.665	39.8542721
879.833	40.84439522
880.001	40.78002964
880.169	39.45103982
880.337	39.56704547
880.505	40.29203043
880.673	40.32377764
880.841	40.83734781
881.009	40.76460102
881.177	39.5320523
881.345	39.64391691
881.513	41.00170541
881.681	41.59865006
881.849	41.08783671
882.017	42.11232188
882.185	41.984
882.352	40.37825962
882.52	40.23017457
882.688	38.07702067
882.856	40.20816432
883.024	41.86258393
883.191	41.81170807
883.359	41.24729855
883.527	41.2427848
883.694	42.95335809
883.862	42.85624357
884.03	42.55282708
884.197	41.93711189
884.365	41.88554835
884.533	41.63897129
884.7	42.21926401
884.868	41.37961786
885.035	40.53445019
885.203	40.30137792
885.37	39.91075697
885.538	38.2737495
885.705	37.38613429
885.873	38.27892311
886.04	37.82582093
886.208	40.2379449
886.375	38.475482
886.542	36.37395961
886.71	37.52310536
886.877	37.52620857
