Data from printrosa_Reflection_00002.txt Node
Date: Thu Apr 11 13:55:15 AEST 2024
User: uqkchene_local
Spectrometer: USB4E02642
Trigger mode: 4
Integration Time (sec): 2.541000E-2
Scans to average: 101
Electric dark correction enabled: true
Nonlinearity correction enabled: false
Boxcar width: 10
XAxis mode: Wavelengths
Number of Pixels in Spectrum: 3648
>>>>>Begin Spectral Data<<<<<
179.217	91.675909
179.432	108.66261398
179.647	120.7387059
179.862	112.74454717
180.077	121.15495987
180.293	117.13816176
180.508	102.20320515
180.723	98.55663101
180.938	80.14643075
181.153	68.907913
181.368	64.23109601
181.583	58.09250484
181.798	48.94012347
182.013	44.24407854
182.228	42.63715259
182.443	40.6628687
182.658	41.1946447
182.873	41.32423747
183.088	43.21195038
183.303	42.68913275
183.518	41.34479598
183.733	41.39784538
183.948	39.38009624
184.162	39.87817963
184.377	39.64980863
184.592	39.50391319
184.807	39.57159535
185.022	39.28036465
185.237	39.21944163
185.452	39.03304323
185.667	38.42546081
185.882	37.97405367
186.096	38.4827676
186.311	40.13992523
186.526	39.87254435
186.741	40.06322689
186.956	39.85796671
187.17	38.53469135
187.385	38.97846035
187.6	37.58385109
187.815	37.50057361
188.03	37.7429332
188.244	38.5839393
188.459	38.49568572
188.674	38.10609211
188.889	38.17589779
189.103	38.24165516
189.318	38.76295052
189.533	39.47515612
189.747	39.76011963
189.962	38.79430044
190.177	38.6484446
190.391	38.64691937
190.606	37.5719048
190.821	36.59660606
191.035	35.92763509
191.25	34.62205585
191.465	33.95228232
191.679	34.84451374
191.894	34.62609418
192.109	35.38058872
192.323	35.10245471
192.538	34.55474128
192.752	34.40492368
192.967	34.42724587
193.181	33.09896009
193.396	32.82694814
193.611	32.58515466
193.825	32.18386106
194.04	31.67736434
194.254	31.89818382
194.469	32.58474728
194.683	32.38679105
194.898	32.37215624
195.112	32.31005652
195.327	32.35399741
195.541	33.24151831
195.756	34.23248875
195.97	36.08851669
196.184	36.37481617
196.399	37.07509514
196.613	36.37172767
196.828	36.22566502
197.042	37.37463142
197.257	37.97930858
197.471	37.57605748
197.685	38.22843355
197.9	38.51447329
198.114	38.28138599
198.328	38.37627366
198.543	38.73677019
198.757	38.00085692
198.971	37.32102174
199.186	38.13320802
199.4	36.91264919
199.614	36.9483652
199.829	36.46039448
200.043	36.5144827
200.257	35.27296518
200.471	34.6374482
200.686	34.30474604
200.9	34.22862936
201.114	34.90565575
201.328	35.47324335
201.543	34.47476892
201.757	33.60964206
201.971	32.81792174
202.185	32.88162595
202.399	32.27043606
202.614	32.37214838
202.828	31.87559755
203.042	33.08919263
203.256	33.64840634
203.47	34.58940971
203.684	34.02682405
203.899	34.09677271
204.113	33.45769026
204.327	33.5385674
204.541	33.09189516
204.755	35.03581926
204.969	34.17836785
205.183	35.62054258
205.397	35.21992732
205.611	34.53935575
205.825	34.50725905
206.039	34.63420584
206.253	35.66508898
206.467	36.49939479
206.681	36.33302024
206.895	36.86255394
207.109	36.74249465
207.323	37.5868401
207.537	36.4808404
207.751	36.3799497
207.965	35.5449724
208.179	35.44747611
208.393	36.26165249
208.607	36.01489147
208.821	36.74869975
209.035	37.30041045
209.249	36.57629019
209.463	37.02339678
209.677	35.26882516
209.891	35.00224694
210.104	34.5746447
210.318	34.92250854
210.532	35.12791919
210.746	34.10649094
210.96	34.11369714
211.174	34.19534559
211.387	34.20824841
211.601	34.28907352
211.815	34.05889767
212.029	33.23893292
212.243	32.85234852
212.456	32.70419955
212.67	32.87697057
212.884	32.63650575
213.098	33.36699846
213.311	33.2475423
213.525	33.33066728
213.739	34.18637976
213.953	34.14043017
214.166	34.4448653
214.38	34.21834394
214.594	35.52741487
214.807	35.36864283
215.021	35.22841744
215.235	34.70140726
215.448	35.32481159
215.662	35.76829263
215.876	36.00652175
216.089	35.77816853
216.303	35.57249814
216.516	35.98737384
216.73	36.39285597
216.944	36.44608401
217.157	36.40404097
217.371	37.31821382
217.584	37.36445498
217.798	36.51387488
218.011	35.9689199
218.225	34.40112527
218.439	34.0379863
218.652	35.11927416
218.866	34.97810576
219.079	34.36325227
219.293	33.97566162
219.506	34.86421931
219.719	34.92758173
219.933	34.42231521
220.146	33.40261488
220.36	33.50357323
220.573	33.87875743
220.787	34.59849224
221	35.31394372
221.214	35.69029876
221.427	35.84882655
221.64	35.49830348
221.854	34.57825054
222.067	34.97269731
222.28	35.52632167
222.494	35.28031185
222.707	36.03395373
222.92	36.20812162
223.134	35.29500777
223.347	35.09837077
223.56	35.568017
223.774	36.13358861
223.987	36.52933887
224.2	37.50027258
224.414	37.46718842
224.627	38.23713392
224.84	38.01769632
225.053	38.58116159
225.267	38.0536128
225.48	37.87218095
225.693	37.75471956
225.906	38.46606026
226.119	38.84002996
226.333	38.68204882
226.546	38.296776
226.759	38.69546562
226.972	39.76501454
227.185	38.71030699
227.398	39.29477726
227.612	38.94295144
227.825	38.76799434
228.038	38.00094935
228.251	36.82328039
228.464	36.09433433
228.677	36.08161404
228.89	37.38267318
229.103	36.64499151
229.316	35.95598659
229.529	35.74052953
229.743	35.32977681
229.956	35.73198295
230.169	34.84718549
230.382	34.49619904
230.595	34.11272569
230.808	34.8756903
231.021	34.10954176
231.234	34.23275715
231.447	33.65531574
231.66	34.71750135
231.872	34.5648544
232.085	35.85032528
232.298	36.48670232
232.511	36.82518921
232.724	37.45817111
232.937	37.4789981
233.15	36.67846625
233.363	34.88118558
233.576	35.40984177
233.789	35.5369632
234.002	35.44072233
234.214	35.60331717
234.427	34.71228239
234.64	34.90007611
234.853	34.48726775
235.066	34.58815411
235.279	33.55639233
235.491	34.68144576
235.704	34.04145882
235.917	33.13101314
236.13	33.03692864
236.342	32.39353852
236.555	31.10473096
236.768	30.46864192
236.981	30.73799144
237.193	29.78748128
237.406	30.16105027
237.619	31.39216471
237.832	31.59485819
238.044	31.72077795
238.257	32.62105979
238.47	32.53811644
238.682	32.92936303
238.895	32.4331319
239.108	33.6668187
239.32	33.50265537
239.533	33.92302957
239.746	34.71893648
239.958	34.03235166
240.171	34.23622272
240.383	35.25363469
240.596	35.21557837
240.808	36.31087316
241.021	36.35181189
241.234	36.34123859
241.446	36.36995503
241.659	37.0145504
241.871	36.66925027
242.084	35.28999726
242.296	35.40210498
242.509	34.98658767
242.721	35.20547415
242.934	35.90899915
243.146	35.50231135
243.359	35.50275615
243.571	35.24245054
243.784	35.40801975
243.996	35.23859825
244.208	35.10267438
244.421	35.14844825
244.633	35.80116226
244.846	35.38388215
245.058	35.66998184
245.27	34.85949498
245.483	34.98517759
245.695	35.29497109
245.907	34.76277023
246.12	35.16146483
246.332	34.88502761
246.544	35.79776965
246.757	35.7158017
246.969	36.36497962
247.181	35.31383962
247.394	33.97251741
247.606	34.63712118
247.818	35.03820217
248.03	34.65561638
248.243	34.29605412
248.455	33.87492782
248.667	33.89021283
248.879	34.27454156
249.092	32.99566803
249.304	33.06333176
249.516	32.18324841
249.728	32.80382791
249.94	33.01441448
250.153	33.55511554
250.365	33.70255175
250.577	34.00063887
250.789	34.65641993
251.001	34.14916074
251.213	33.84062906
251.425	34.2449661
251.637	34.24047583
251.85	34.74457421
252.062	34.45504568
252.274	35.14923479
252.486	35.25425352
252.698	36.23543175
252.91	36.00100481
253.122	35.37352123
253.334	35.18832805
253.546	35.73816431
253.758	35.42002128
253.97	35.71593728
254.182	35.11110591
254.394	34.5050032
254.606	33.85636012
254.818	34.47051987
255.03	33.99574756
255.242	33.24167867
255.454	33.30731777
255.666	33.87438361
255.877	33.36382391
256.089	32.99092546
256.301	33.19269088
256.513	32.72962011
256.725	32.96560675
256.937	32.80949496
257.149	32.75284852
257.361	34.19170301
257.572	34.83403204
257.784	35.50176987
257.996	35.97293497
258.208	36.34363974
258.42	36.5956523
258.631	36.83099973
258.843	38.23458617
259.055	38.31287263
259.267	37.62384867
259.479	38.05878763
259.69	38.02155205
259.902	37.95775445
260.114	38.43280815
260.325	38.35838015
260.537	39.10473657
260.749	38.92746304
260.961	38.86460704
261.172	38.40125089
261.384	38.16839546
261.596	37.9158964
261.807	38.09377508
262.019	37.92909699
262.23	37.20840933
262.442	36.74749437
262.654	36.63507018
262.865	36.23968507
263.077	36.13517373
263.288	35.47105108
263.5	35.78151408
263.712	35.38370608
263.923	34.33488149
264.135	34.48738337
264.346	34.05726286
264.558	32.82476806
264.769	32.12135861
264.981	32.12689235
265.192	31.62223798
265.404	32.60535829
265.615	31.98355539
265.827	32.15875385
266.038	32.52235641
266.25	32.09484697
266.461	31.83444066
266.673	32.21795153
266.884	31.88467373
267.095	32.63304656
267.307	33.35558888
267.518	33.23161238
267.73	32.95404415
267.941	32.96546788
268.152	33.09513992
268.364	33.83681023
268.575	34.41166319
268.786	35.57226346
268.998	36.11361763
269.209	36.53852247
269.42	36.39630372
269.632	37.50981727
269.843	37.07870996
270.054	37.42481132
270.265	37.52525619
270.477	36.84908984
270.688	36.74379762
270.899	37.69291481
271.11	38.02650687
271.322	38.2897013
271.533	38.1352885
271.744	37.22113035
271.955	37.26720029
272.166	37.42324332
272.378	36.74465118
272.589	37.1924622
272.8	37.39045764
273.011	36.85618568
273.222	36.37683194
273.433	36.25781226
273.644	36.13804063
273.856	36.81102162
274.067	35.70790661
274.278	35.38840471
274.489	35.28623508
274.7	34.30859741
274.911	34.78670523
275.122	34.0297376
275.333	33.15775768
275.544	32.48347233
275.755	32.38140982
275.966	32.4545983
276.177	32.29986344
276.388	31.82753892
276.599	32.07101618
276.81	32.79406797
277.021	32.66414522
277.232	32.22393106
277.443	32.34551468
277.654	32.31880035
277.865	32.10323403
278.076	31.63433059
278.287	31.31402656
278.497	31.95254208
278.708	31.67746863
278.919	31.45062585
279.13	32.1241323
279.341	31.93127672
279.552	32.21200614
279.763	31.91219978
279.973	31.62024149
280.184	31.82502676
280.395	31.34926749
280.606	31.68704585
280.817	31.68533632
281.027	31.11524846
281.238	30.56216206
281.449	30.13075504
281.66	30.51552659
281.87	30.26123513
282.081	29.39577182
282.292	29.71902862
282.503	30.07977287
282.713	30.09172274
282.924	29.63983529
283.135	29.85494516
283.345	30.27165854
283.556	30.30098852
283.767	29.84689515
283.977	30.1842049
284.188	30.31310796
284.399	30.74593003
284.609	30.13773657
284.82	29.98765781
285.03	30.01932946
285.241	30.52377182
285.451	30.26995793
285.662	30.20811085
285.873	30.23867907
286.083	29.79962835
286.294	29.35616082
286.504	29.85451024
286.715	29.78392202
286.925	29.99493539
287.136	29.50037865
287.346	28.75157065
287.557	28.44469196
287.767	27.34286533
287.978	27.1561088
288.188	27.487657
288.399	27.1615704
288.609	27.46600014
288.819	26.94151864
289.03	26.71613142
289.24	26.64979775
289.451	26.6206921
289.661	26.34481001
289.871	26.29226198
290.082	26.272769
290.292	26.06637878
290.502	25.77590325
290.713	25.81662094
290.923	25.14846013
291.133	24.8980297
291.344	24.53675974
291.554	23.89891832
291.764	24.01119588
291.974	23.4563841
292.185	23.43286062
292.395	22.74370722
292.605	21.94504341
292.815	21.16651432
293.026	20.16281991
293.236	19.9717788
293.446	19.64998312
293.656	19.04412521
293.866	18.28844477
294.077	17.54315377
294.287	16.75713386
294.497	16.07556144
294.707	15.45711011
294.917	14.93773878
295.127	14.27713802
295.337	13.76147253
295.548	13.16686064
295.758	12.55514841
295.968	12.20190632
296.178	11.70862634
296.388	11.48343532
296.598	11.10239834
296.808	10.72929013
297.018	10.39739045
297.228	10.28015552
297.438	10.0638798
297.648	9.69629004
297.858	9.46158706
298.068	9.16111627
298.278	8.92627536
298.488	8.73222529
298.698	8.63362398
298.908	8.54043503
299.118	8.36187371
299.328	8.19172193
299.538	8.08186271
299.748	7.93572713
299.957	7.77196908
300.167	7.62491124
300.377	7.46065164
300.587	7.36220939
300.797	7.17383837
301.007	7.05496391
301.217	7.01619504
301.426	6.93498295
301.636	6.76689833
301.846	6.6475663
302.056	6.57991267
302.266	6.50613122
302.475	6.46022192
302.685	6.39113767
302.895	6.33026599
303.105	6.23722489
303.314	6.13398025
303.524	6.05999987
303.734	5.97410771
303.944	5.88698792
304.153	5.84126213
304.363	5.79757786
304.573	5.74000418
304.782	5.72809313
304.992	5.67804957
305.202	5.65909893
305.411	5.60288472
305.621	5.57615315
305.831	5.5357044
306.04	5.50902384
306.25	5.51660202
306.459	5.46839063
306.669	5.44222952
306.878	5.41320296
307.088	5.38473468
307.298	5.35896761
307.507	5.33358265
307.717	5.30129464
307.926	5.28506532
308.136	5.2705993
308.345	5.26023869
308.555	5.24177272
308.764	5.2219519
308.974	5.20822286
309.183	5.185161
309.392	5.17097537
309.602	5.15495668
309.811	5.16352874
310.021	5.11721333
310.23	5.11417455
310.44	5.10684836
310.649	5.06653444
310.858	5.06022894
311.068	5.034868
311.277	5.01555138
311.486	5.00356966
311.696	5.00025637
311.905	4.99763506
312.114	5.00732783
312.324	4.99625141
312.533	4.98487601
312.742	4.97354082
312.952	4.9661933
313.161	4.95761417
313.37	4.94993144
313.579	4.93983238
313.789	4.93629756
313.998	4.92765842
314.207	4.91504578
314.416	4.91395458
314.625	4.90121829
314.835	4.8807738
315.044	4.88227544
315.253	4.87843896
315.462	4.86197326
315.671	4.86092217
315.88	4.85211647
316.09	4.83481168
316.299	4.82684459
316.508	4.8060145
316.717	4.79757534
316.926	4.79668455
317.135	4.78790238
317.344	4.77527218
317.553	4.76991301
317.762	4.76646916
317.971	4.7627187
318.18	4.75522085
318.389	4.74568195
318.598	4.73618217
318.807	4.73729759
319.016	4.72531694
319.225	4.72062311
319.434	4.71123503
319.643	4.69420459
319.852	4.69727627
320.061	4.68407432
320.27	4.67203425
320.479	4.66499495
320.688	4.65064598
320.897	4.64103169
321.105	4.63298408
321.314	4.62282822
321.523	4.61938581
321.732	4.61130314
321.941	4.61112168
322.15	4.59713684
322.359	4.58700322
322.567	4.5777453
322.776	4.57237211
322.985	4.56464377
323.194	4.55331118
323.403	4.54750306
323.611	4.54329906
323.82	4.53775334
324.029	4.53757594
324.237	4.53178813
324.446	4.52551225
324.655	4.52430425
324.864	4.51927992
325.072	4.51683126
325.281	4.51313842
325.49	4.51354997
325.698	4.5106579
325.907	4.51034284
326.116	4.50900933
326.324	4.50024437
326.533	4.50365303
326.741	4.50675485
326.95	4.50417884
327.159	4.50203593
327.367	4.50213807
327.576	4.50134744
327.784	4.50063035
327.993	4.49941767
328.201	4.49600935
328.41	4.48995464
328.618	4.48924059
328.827	4.49546437
329.035	4.49653062
329.244	4.49843662
329.452	4.49772285
329.661	4.5065837
329.869	4.50362928
330.078	4.50395687
330.286	4.50204389
330.495	4.5009713
330.703	4.50017425
330.911	4.49603525
331.12	4.48869876
331.328	4.48826192
331.537	4.48620725
331.745	4.48541829
331.953	4.49075882
332.162	4.4932219
332.37	4.49623764
332.578	4.49916985
332.787	4.50312481
332.995	4.50258465
333.203	4.50057112
333.411	4.4946125
333.62	4.49242472
333.828	4.49626528
334.036	4.48937051
334.244	4.48960063
334.453	4.48908581
334.661	4.48875231
334.869	4.49030479
335.077	4.49268338
335.285	4.49338375
335.494	4.49730463
335.702	4.50241538
335.91	4.50580585
336.118	4.50318884
336.326	4.50245423
336.534	4.50266665
336.742	4.50074411
336.951	4.50291577
337.159	4.50330301
337.367	4.50812453
337.575	4.509584
337.783	4.51481511
337.991	4.51744597
338.199	4.51966113
338.407	4.52355037
338.615	4.52862069
338.823	4.53063279
339.031	4.52858736
339.239	4.52940451
339.447	4.53465028
339.655	4.53930877
339.863	4.54018181
340.071	4.53494094
340.279	4.538181
340.487	4.54973989
340.695	4.55199335
340.903	4.55300766
341.11	4.55801731
341.318	4.55862704
341.526	4.56093821
341.734	4.56525138
341.942	4.56844336
342.15	4.57278143
342.358	4.57637137
342.565	4.58261169
342.773	4.58869598
342.981	4.59232126
343.189	4.59968862
343.397	4.61070435
343.604	4.62072493
343.812	4.6234373
344.02	4.62639254
344.228	4.63309815
344.435	4.64023848
344.643	4.64520932
344.851	4.64948888
345.058	4.6534101
345.266	4.66079845
345.474	4.6667139
345.681	4.67888627
345.889	4.68684748
346.097	4.68866173
346.304	4.69163123
346.512	4.69947178
346.72	4.70684794
346.927	4.70892033
347.135	4.71500313
347.342	4.71989556
347.55	4.72586716
347.758	4.73282058
347.965	4.7389647
348.173	4.74479859
348.38	4.75713757
348.588	4.77127852
348.795	4.78487115
349.003	4.79353774
349.21	4.80229835
349.418	4.8143433
349.625	4.82196951
349.833	4.83130133
350.04	4.83809856
350.247	4.85199572
350.455	4.86330086
350.662	4.88077417
350.87	4.89734382
351.077	4.91220898
351.284	4.92626072
351.492	4.93917491
351.699	4.95177989
351.906	4.96531196
352.114	4.97661909
352.321	4.99109725
352.528	4.99985192
352.736	5.01396567
352.943	5.02757059
353.15	5.04124767
353.358	5.05564389
353.565	5.06693797
353.772	5.0793273
353.979	5.10307158
354.187	5.11623186
354.394	5.12999202
354.601	5.14397138
354.808	5.15804222
355.015	5.17013786
355.223	5.18185795
355.43	5.19208478
355.637	5.20789367
355.844	5.22318074
356.051	5.2421705
356.258	5.25956614
356.465	5.27757068
356.673	5.29422663
356.88	5.31712213
357.087	5.3342848
357.294	5.35129001
357.501	5.36734707
357.708	5.38649731
357.915	5.40646973
358.122	5.42613572
358.329	5.44044716
358.536	5.46044802
358.743	5.47954151
358.95	5.49965827
359.157	5.52477874
359.364	5.54529994
359.571	5.56541992
359.778	5.58881384
359.985	5.60514872
360.192	5.62685903
360.399	5.64853247
360.606	5.66757676
360.812	5.68731031
361.019	5.70820498
361.226	5.72692108
361.433	5.74890665
361.64	5.76713729
361.847	5.79127925
362.054	5.81021532
362.26	5.83467845
362.467	5.85921302
362.674	5.88115115
362.881	5.90604125
363.088	5.92923941
363.294	5.95122207
363.501	5.96752656
363.708	5.9911566
363.915	6.01602368
364.121	6.03830082
364.328	6.06417874
364.535	6.08756449
364.741	6.10959647
364.948	6.13381792
365.155	6.1583448
365.361	6.1843013
365.568	6.21293656
365.775	6.23902871
365.981	6.26797879
366.188	6.2922399
366.395	6.32371486
366.601	6.3505565
366.808	6.37552155
367.014	6.40944379
367.221	6.43998486
367.427	6.47206488
367.634	6.50326385
367.84	6.53992177
368.047	6.57593214
368.254	6.6101935
368.46	6.64587381
368.667	6.68127791
368.873	6.72020829
369.079	6.75703205
369.286	6.79595479
369.492	6.83412463
369.699	6.87430244
369.905	6.91521043
370.112	6.9576688
370.318	6.99515177
370.524	7.04129862
370.731	7.08383805
370.937	7.12945449
371.144	7.17475206
371.35	7.21647677
371.556	7.2568115
371.763	7.30369732
371.969	7.35231293
372.175	7.39796003
372.381	7.43755631
372.588	7.48401984
372.794	7.53350561
373	7.58527138
373.206	7.63115168
373.413	7.68217684
373.619	7.73217049
373.825	7.78354219
374.031	7.83183009
374.238	7.88207002
374.444	7.9300138
374.65	7.98408368
374.856	8.03314639
375.062	8.08743431
375.268	8.14121446
375.475	8.19685018
375.681	8.25241796
375.887	8.31081833
376.093	8.36986241
376.299	8.42202367
376.505	8.48465993
376.711	8.55338433
376.917	8.62085073
377.123	8.68451337
377.329	8.75149105
377.535	8.81949756
377.741	8.89104824
377.947	8.95938943
378.153	9.03079516
378.359	9.10729364
378.565	9.18505976
378.771	9.26754557
378.977	9.35067483
379.183	9.44041315
379.389	9.52821491
379.595	9.61614748
379.801	9.71203128
380.007	9.80606593
380.213	9.90626951
380.418	10.0067998
380.624	10.11933398
380.83	10.2278177
381.036	10.33838168
381.242	10.4450839
381.448	10.56289629
381.653	10.67657328
381.859	10.79919527
382.065	10.9167805
382.271	11.04156715
382.476	11.16810532
382.682	11.29389801
382.888	11.42083385
383.094	11.54687185
383.299	11.67471775
383.505	11.80067274
383.711	11.92758701
383.916	12.06016491
384.122	12.19404273
384.328	12.32729226
384.533	12.46618651
384.739	12.60164446
384.945	12.74470015
385.15	12.88749239
385.356	13.02639258
385.562	13.17520681
385.767	13.32363347
385.973	13.47681682
386.178	13.62331554
386.384	13.76851216
386.589	13.9226547
386.795	14.08091678
387	14.23966851
387.206	14.39608133
387.411	14.55937001
387.617	14.72794743
387.822	14.89925015
388.028	15.07919849
388.233	15.25757585
388.439	15.43851699
388.644	15.63068652
388.85	15.82671024
389.055	16.0369918
389.26	16.24974923
389.466	16.46581809
389.671	16.68712887
389.877	16.90848776
390.082	17.13638696
390.287	17.3744003
390.493	17.61863155
390.698	17.86847927
390.903	18.12177552
391.109	18.36880537
391.314	18.62897313
391.519	18.88529346
391.724	19.14236849
391.93	19.40610156
392.135	19.66667674
392.34	19.93012812
392.545	20.19337952
392.751	20.45952123
392.956	20.72356644
393.161	20.98076559
393.366	21.23624836
393.571	21.48839656
393.776	21.74033646
393.982	21.99609922
394.187	22.24794527
394.392	22.5028185
394.597	22.74942932
394.802	22.99485173
395.007	23.24351786
395.212	23.48017269
395.417	23.72346059
395.622	23.95847629
395.827	24.19480189
396.032	24.42481153
396.237	24.64535332
396.442	24.86819026
396.647	25.08549948
396.852	25.30376804
397.057	25.51191875
397.262	25.72373029
397.467	25.93367473
397.672	26.1377254
397.877	26.34075667
398.082	26.54198929
398.287	26.74274865
398.492	26.93631913
398.697	27.1307049
398.902	27.32460079
399.107	27.51670438
399.311	27.70437879
399.516	27.89582239
399.721	28.07932212
399.926	28.26528938
400.131	28.4454516
400.336	28.62527272
400.54	28.80538302
400.745	28.98354476
400.95	29.1597756
401.155	29.34136038
401.359	29.52028877
401.564	29.69468107
401.769	29.87007295
401.974	30.04789873
402.178	30.22377836
402.383	30.3949935
402.588	30.56225119
402.792	30.7297767
402.997	30.8990739
403.202	31.06006715
403.406	31.225147
403.611	31.38731521
403.815	31.54414884
404.02	31.71123362
404.225	31.86784159
404.429	32.02271921
404.634	32.17827501
404.838	32.33511725
405.043	32.48935102
405.247	32.64371389
405.452	32.78621317
405.656	32.94198765
405.861	33.08930183
406.065	33.22866718
406.27	33.3682744
406.474	33.50391915
406.679	33.64073522
406.883	33.77445092
407.088	33.90953866
407.292	34.03247465
407.497	34.15798962
407.701	34.28005329
407.905	34.39572595
408.11	34.51537473
408.314	34.62335263
408.518	34.73641123
408.723	34.84818698
408.927	34.95806959
409.131	35.0633946
409.336	35.16288898
409.54	35.26419691
409.744	35.3662379
409.949	35.45810524
410.153	35.54698998
410.357	35.63321355
410.561	35.71805997
410.766	35.80008358
410.97	35.88096512
411.174	35.96119921
411.378	36.04067441
411.582	36.12157657
411.787	36.20403218
411.991	36.27543
412.195	36.35385002
412.399	36.4271339
412.603	36.50397871
412.807	36.57178351
413.011	36.63943713
413.215	36.70566609
413.419	36.77300769
413.624	36.83841702
413.828	36.90745169
414.032	36.97140345
414.236	37.03308405
414.44	37.09858175
414.644	37.16727009
414.848	37.2332254
415.052	37.29323198
415.256	37.35759403
415.46	37.41651615
415.664	37.47750941
415.868	37.53169121
416.072	37.59147155
416.275	37.6546301
416.479	37.7094996
416.683	37.7678041
416.887	37.81742063
417.091	37.87006369
417.295	37.92867761
417.499	37.9837297
417.703	38.03748371
417.906	38.09033144
418.11	38.13508562
418.314	38.18635186
418.518	38.23895392
418.722	38.29099427
418.925	38.33650202
419.129	38.38594314
419.333	38.43771411
419.537	38.48057927
419.74	38.52563365
419.944	38.56984595
420.148	38.61883355
420.352	38.66103742
420.555	38.70064777
420.759	38.74165507
420.963	38.77760256
421.166	38.81516428
421.37	38.8589765
421.573	38.89680101
421.777	38.93342294
421.981	38.97056043
422.184	39.00915584
422.388	39.0489129
422.591	39.08552048
422.795	39.11909631
422.999	39.1493475
423.202	39.1846423
423.406	39.21854548
423.609	39.26149338
423.813	39.30114627
424.016	39.34583751
424.22	39.38408936
424.423	39.41603355
424.627	39.45139522
424.83	39.48616473
425.033	39.52552002
425.237	39.56717733
425.44	39.61414167
425.644	39.65361083
425.847	39.68701457
426.05	39.72544929
426.254	39.76102667
426.457	39.79661685
426.66	39.83532844
426.864	39.86883156
427.067	39.90978663
427.27	39.95154157
427.474	39.98901661
427.677	40.02299029
427.88	40.05074423
428.084	40.08749797
428.287	40.119057
428.49	40.14812214
428.693	40.18821049
428.896	40.22028165
429.1	40.25600642
429.303	40.28903207
429.506	40.31807702
429.709	40.34702619
429.912	40.37644773
430.116	40.41242536
430.319	40.44593459
430.522	40.48099157
430.725	40.5118608
430.928	40.54167539
431.131	40.57471604
431.334	40.59935502
431.537	40.62941399
431.74	40.66318756
431.943	40.69188504
432.146	40.72615401
432.349	40.7528598
432.552	40.77947567
432.755	40.80841194
432.958	40.83719631
433.161	40.86421523
433.364	40.89048267
433.567	40.91547306
433.77	40.94159944
433.973	40.96827888
434.176	40.98973152
434.379	41.01514536
434.582	41.03490518
434.785	41.05787841
434.988	41.0810405
435.19	41.10538459
435.393	41.13091039
435.596	41.15904944
435.799	41.17729546
436.002	41.1996726
436.205	41.22426671
436.407	41.24323474
436.61	41.26075837
436.813	41.2861166
437.016	41.31476762
437.218	41.33322524
437.421	41.35729614
437.624	41.37937084
437.827	41.40239971
438.029	41.42466923
438.232	41.44540734
438.435	41.46649615
438.637	41.48661781
438.84	41.51379712
439.043	41.53166906
439.245	41.55860389
439.448	41.57881905
439.65	41.59816962
439.853	41.61933711
440.056	41.6456801
440.258	41.66367211
440.461	41.67985674
440.663	41.70228895
440.866	41.72656843
441.068	41.74414971
441.271	41.757857
441.473	41.7779677
441.676	41.79749717
441.878	41.81489641
442.081	41.83673225
442.283	41.86044855
442.486	41.8811161
442.688	41.90436694
442.89	41.91994901
443.093	41.93629912
443.295	41.95226221
443.498	41.96747602
443.7	41.98661909
443.902	42.00376959
444.105	42.01973612
444.307	42.02825092
444.509	42.04156714
444.712	42.06638618
444.914	42.08493931
445.116	42.10175223
445.319	42.11559464
445.521	42.13202818
445.723	42.1454486
445.925	42.16176379
446.128	42.17645896
446.33	42.19100975
446.532	42.20019443
446.734	42.21398761
446.936	42.22101439
447.139	42.24242987
447.341	42.24885797
447.543	42.26200678
447.745	42.27393628
447.947	42.28344934
448.149	42.29166338
448.351	42.30156683
448.553	42.31491358
448.755	42.32825455
448.958	42.33520779
449.16	42.33740841
449.362	42.34715393
449.564	42.35776133
449.766	42.36522931
449.968	42.37162442
450.17	42.37900427
450.372	42.38346628
450.574	42.38610612
450.776	42.39111172
450.978	42.39531102
451.179	42.40275019
451.381	42.40305604
451.583	42.41518818
451.785	42.42161813
451.987	42.42134412
452.189	42.42489753
452.391	42.4264497
452.593	42.42940724
452.795	42.43185373
452.996	42.43173497
453.198	42.42821194
453.4	42.43020436
453.602	42.43115293
453.804	42.42801602
454.005	42.43223323
454.207	42.431664
454.409	42.42571936
454.611	42.42415257
454.812	42.42338951
455.014	42.42543345
455.216	42.42355724
455.417	42.42301035
455.619	42.42002352
455.821	42.41509315
456.022	42.41004394
456.224	42.40441792
456.426	42.3994468
456.627	42.40034074
456.829	42.39062781
457.031	42.38453833
457.232	42.37906215
457.434	42.37528835
457.635	42.37090665
457.837	42.36336898
458.038	42.35926252
458.24	42.34891768
458.441	42.3406892
458.643	42.33589237
458.844	42.32706207
459.046	42.31755653
459.247	42.30279129
459.449	42.29120953
459.65	42.27946897
459.852	42.26984913
460.053	42.25818062
460.254	42.24938451
460.456	42.24044196
460.657	42.22838065
460.859	42.21394421
461.06	42.20419734
461.261	42.19381807
461.463	42.18902812
461.664	42.17454133
461.865	42.16014746
462.066	42.14810329
462.268	42.13756343
462.469	42.12544853
462.67	42.111848
462.872	42.09646602
463.073	42.08986192
463.274	42.07849978
463.475	42.06819944
463.676	42.05805175
463.878	42.04447479
464.079	42.02746456
464.28	42.01213591
464.481	41.99428506
464.682	41.98234294
464.883	41.96878253
465.085	41.95656844
465.286	41.94692466
465.487	41.93316501
465.688	41.91370578
465.889	41.89961836
466.09	41.88082514
466.291	41.86243488
466.492	41.84922477
466.693	41.83433689
466.894	41.82328816
467.095	41.81122759
467.296	41.79464236
467.497	41.77888256
467.698	41.76175103
467.899	41.74391041
468.1	41.7294279
468.301	41.71860618
468.502	41.704315
468.703	41.69043117
468.903	41.67634226
469.104	41.66249222
469.305	41.64375926
469.506	41.62579507
469.707	41.61062975
469.908	41.59486161
470.109	41.58129642
470.309	41.56896039
470.51	41.55471623
470.711	41.53783559
470.912	41.51943027
471.112	41.50108278
471.313	41.48194779
471.514	41.46532662
471.715	41.4490659
471.915	41.43639935
472.116	41.42485785
472.317	41.40996932
472.517	41.39008903
472.718	41.37720064
472.919	41.36585989
473.119	41.34629619
473.32	41.32909932
473.521	41.31377512
473.721	41.29783013
473.922	41.28393728
474.122	41.26810773
474.323	41.25124828
474.523	41.2365643
474.724	41.22347091
474.925	41.20767519
475.125	41.19417508
475.326	41.18595971
475.526	41.17314597
475.727	41.15985339
475.927	41.14838996
476.127	41.13199115
476.328	41.11438808
476.528	41.1017677
476.729	41.08894269
476.929	41.07376037
477.13	41.05669221
477.33	41.04850914
477.53	41.03385757
477.731	41.02323405
477.931	41.00989557
478.131	40.9964779
478.332	40.98426861
478.532	40.97452093
478.732	40.96302075
478.933	40.9469425
479.133	40.93317278
479.333	40.91832658
479.533	40.90038943
479.734	40.89169439
479.934	40.87904439
480.134	40.86367911
480.334	40.85267095
480.534	40.8420869
480.735	40.82885323
480.935	40.81755711
481.135	40.80764945
481.335	40.79892705
481.535	40.7852304
481.735	40.77669481
481.935	40.76237323
482.136	40.7517085
482.336	40.73543112
482.536	40.72312191
482.736	40.7090555
482.936	40.69798572
483.136	40.68509939
483.336	40.67315719
483.536	40.66203739
483.736	40.65171462
483.936	40.63729674
484.136	40.62038561
484.336	40.60884481
484.536	40.5966566
484.736	40.58352801
484.936	40.56873081
485.135	40.55756176
485.335	40.54736396
485.535	40.53432844
485.735	40.52201984
485.935	40.5091194
486.135	40.5003494
486.335	40.48363289
486.534	40.47645259
486.734	40.46461472
486.934	40.45419652
487.134	40.44134081
487.334	40.43486107
487.533	40.42177188
487.733	40.41079233
487.933	40.39759703
488.133	40.38645011
488.332	40.37946952
488.532	40.36996117
488.732	40.35825185
488.931	40.34840905
489.131	40.33927531
489.331	40.32870243
489.53	40.31753209
489.73	40.30369373
489.93	40.29358877
490.129	40.28024184
490.329	40.27018743
490.528	40.26676289
490.728	40.25536041
490.928	40.24683296
491.127	40.23617538
491.327	40.22606435
491.526	40.2118529
491.726	40.20371938
491.925	40.19487947
492.125	40.18797765
492.324	40.17541808
492.524	40.16605124
492.723	40.15941203
492.922	40.15033367
493.122	40.13856648
493.321	40.12928212
493.521	40.11994613
493.72	40.11143676
493.919	40.10498021
494.119	40.0954259
494.318	40.08872988
494.517	40.07694705
494.717	40.06252712
494.916	40.05126618
495.115	40.04044345
495.315	40.03121565
495.514	40.02596706
495.713	40.02106791
495.912	40.01327849
496.112	40.00157319
496.311	39.99206198
496.51	39.98658434
496.709	39.9743892
496.908	39.9618387
497.108	39.95536442
497.307	39.94917589
497.506	39.93938306
497.705	39.93297941
497.904	39.92134615
498.103	39.91310263
498.302	39.90323142
498.501	39.89604946
498.701	39.88953817
498.9	39.88395143
499.099	39.87912035
499.298	39.87225518
499.497	39.86207678
499.696	39.85213872
499.895	39.84144814
500.094	39.83148614
500.293	39.82575994
500.492	39.81707297
500.691	39.80902871
500.89	39.80403149
501.088	39.79723342
501.287	39.78661438
501.486	39.77890083
501.685	39.77356972
501.884	39.76233817
502.083	39.75040203
502.282	39.73944874
502.481	39.73275389
502.679	39.72630866
502.878	39.72073148
503.077	39.71258281
503.276	39.70050134
503.475	39.69161593
503.673	39.68583423
503.872	39.67472056
504.071	39.66733098
504.27	39.65965028
504.468	39.65103178
504.667	39.64270164
504.866	39.63353473
505.064	39.62689269
505.263	39.6142864
505.462	39.60677013
505.66	39.59510356
505.859	39.58490314
506.058	39.57586613
506.256	39.56952134
506.455	39.56639548
506.653	39.55486151
506.852	39.54379386
507.05	39.52874621
507.249	39.51875459
507.448	39.51336737
507.646	39.5037913
507.845	39.49214496
508.043	39.48238205
508.242	39.4718658
508.44	39.45839784
508.638	39.45115578
508.837	39.44215151
509.035	39.43342137
509.234	39.42396577
509.432	39.41847737
509.631	39.40812104
509.829	39.40026699
510.027	39.39383827
510.226	39.38710781
510.424	39.37920177
510.622	39.37165945
510.821	39.36470026
511.019	39.35712966
511.217	39.3557213
511.415	39.35113615
511.614	39.34513994
511.812	39.34015507
512.01	39.33336269
512.208	39.3302528
512.407	39.32711051
512.605	39.32702169
512.803	39.32079178
513.001	39.31616992
513.199	39.30902329
513.398	39.3056857
513.596	39.30237086
513.794	39.29982813
513.992	39.29630338
514.19	39.2943856
514.388	39.29026653
514.586	39.28902692
514.784	39.2850687
514.982	39.28581866
515.18	39.28244245
515.378	39.27861
515.576	39.2754421
515.774	39.27192275
515.972	39.27116377
516.17	39.2729557
516.368	39.27081947
516.566	39.26750522
516.764	39.2701227
516.962	39.27186166
517.16	39.2717537
517.358	39.27808335
517.556	39.27695342
517.754	39.27846323
517.952	39.27793137
518.149	39.2824548
518.347	39.28319482
518.545	39.28671352
518.743	39.28925886
518.941	39.29034565
519.138	39.29541209
519.336	39.29875286
519.534	39.3038507
519.732	39.30821205
519.929	39.31312692
520.127	39.31700389
520.325	39.32428776
520.523	39.32868245
520.72	39.33412499
520.918	39.33762688
521.116	39.34097237
521.313	39.34714573
521.511	39.35101943
521.709	39.35781092
521.906	39.36158272
522.104	39.37158365
522.301	39.37939508
522.499	39.38671429
522.696	39.3960205
522.894	39.40434707
523.092	39.41425322
523.289	39.4214764
523.487	39.43096505
523.684	39.4377973
523.882	39.44582915
524.079	39.45574311
524.276	39.46446393
524.474	39.47482602
524.671	39.48414086
524.869	39.4957221
525.066	39.50048167
525.264	39.51130964
525.461	39.51971962
525.658	39.52891897
525.856	39.53995871
526.053	39.55006779
526.25	39.56007157
526.448	39.56913319
526.645	39.58151912
526.842	39.58911461
527.039	39.59635561
527.237	39.60648711
527.434	39.61927615
527.631	39.63204769
527.828	39.64062963
528.026	39.65492559
528.223	39.66483824
528.42	39.67946248
528.617	39.69256738
528.814	39.7067162
529.012	39.7207481
529.209	39.74050967
529.406	39.76006072
529.603	39.7756164
529.8	39.79026469
529.997	39.80217803
530.194	39.81841119
530.391	39.833921
530.588	39.84810258
530.785	39.86326359
530.982	39.88514833
531.179	39.90525994
531.376	39.91934138
531.573	39.93376036
531.77	39.95203
531.967	39.97213039
532.164	39.99003799
532.361	40.00985402
532.558	40.02856637
532.755	40.04573676
532.952	40.06557358
533.149	40.08473017
533.346	40.10498985
533.543	40.12313389
533.739	40.14577795
533.936	40.16455421
534.133	40.19016009
534.33	40.21194736
534.527	40.23323522
534.723	40.2556105
534.92	40.2773926
535.117	40.2958883
535.314	40.32159193
535.51	40.34753387
535.707	40.37137141
535.904	40.39595979
536.1	40.42189067
536.297	40.44276949
536.494	40.46729103
536.69	40.49024535
536.887	40.51538518
537.084	40.54126414
537.28	40.56755187
537.477	40.59133636
537.674	40.61299734
537.87	40.6382261
538.067	40.66592396
538.263	40.69059302
538.46	40.72183678
538.656	40.74915384
538.853	40.77523561
539.049	40.80073586
539.246	40.82859675
539.442	40.85270676
539.639	40.88093197
539.835	40.90818648
540.032	40.9347034
540.228	40.96224708
540.424	40.99465757
540.621	41.0248879
540.817	41.05235636
541.014	41.07728971
541.21	41.10485184
541.406	41.13348564
541.603	41.15764042
541.799	41.18535755
541.995	41.2128863
542.191	41.24188426
542.388	41.26708802
542.584	41.28789116
542.78	41.31399329
542.976	41.34002734
543.173	41.36601174
543.369	41.38955433
543.565	41.41558093
543.761	41.43755
543.957	41.46174122
544.154	41.48148981
544.35	41.50300989
544.546	41.52101476
544.742	41.53976953
544.938	41.55979096
545.134	41.58165456
545.33	41.60280377
545.526	41.61895883
545.722	41.64052678
545.919	41.66233159
546.115	41.67740905
546.311	41.69699933
546.507	41.71302478
546.703	41.72955829
546.899	41.74785726
547.095	41.76662366
547.29	41.7846183
547.486	41.80141503
547.682	41.81445518
547.878	41.83261994
548.074	41.84443406
548.27	41.86366802
548.466	41.88029633
548.662	41.8959369
548.858	41.91379776
549.053	41.92948543
549.249	41.94277748
549.445	41.95669674
549.641	41.97471469
549.837	41.98845183
550.032	41.99992343
550.228	42.02038319
550.424	42.03270199
550.62	42.04999737
550.815	42.06798391
551.011	42.08130604
551.207	42.09815101
551.402	42.11292729
551.598	42.12770124
551.794	42.14422026
551.989	42.15808469
552.185	42.17763493
552.381	42.19231267
552.576	42.20940612
552.772	42.22923611
552.967	42.24450641
553.163	42.26700966
553.359	42.28885006
553.554	42.31095084
553.75	42.32874918
553.945	42.34981164
554.141	42.37109927
554.336	42.3886144
554.532	42.40812348
554.727	42.43105075
554.922	42.45454962
555.118	42.47680162
555.313	42.49875474
555.509	42.52509947
555.704	42.55021852
555.899	42.57586158
556.095	42.60683843
556.29	42.63704694
556.486	42.67126707
556.681	42.70313815
556.876	42.73322156
557.071	42.76902205
557.267	42.79927445
557.462	42.83363477
557.657	42.86712695
557.853	42.90785269
558.048	42.94599705
558.243	42.98950013
558.438	43.03192108
558.633	43.07870772
558.829	43.12650012
559.024	43.17185547
559.219	43.22533906
559.414	43.2763476
559.609	43.32842042
559.804	43.38123821
559.999	43.43370937
560.194	43.48685998
560.39	43.54395486
560.585	43.59949015
560.78	43.65864227
560.975	43.71739271
561.17	43.78139448
561.365	43.84854878
561.56	43.91621481
561.755	43.98635822
561.95	44.05401572
562.145	44.12749683
562.34	44.19822233
562.535	44.27148472
562.729	44.35021415
562.924	44.42470984
563.119	44.50480542
563.314	44.58188449
563.509	44.66274966
563.704	44.73987422
563.899	44.82981151
564.093	44.92326022
564.288	45.01714364
564.483	45.11078501
564.678	45.20356033
564.873	45.2988388
565.067	45.39801408
565.262	45.49420162
565.457	45.59333608
565.652	45.69348071
565.846	45.79654561
566.041	45.90129178
566.236	46.00429303
566.43	46.10915301
566.625	46.2253574
566.82	46.33293939
567.014	46.44598455
567.209	46.55983133
567.404	46.67495316
567.598	46.79014545
567.793	46.91357391
567.987	47.03246935
568.182	47.15297457
568.376	47.26521352
568.571	47.38005421
568.765	47.50178748
568.96	47.62471363
569.154	47.74745108
569.349	47.87449246
569.543	48.00105304
569.738	48.12986065
569.932	48.25732684
570.127	48.38384788
570.321	48.51751994
570.515	48.6484397
570.71	48.77962895
570.904	48.91012898
571.098	49.04004183
571.293	49.17335759
571.487	49.30905687
571.681	49.44535375
571.876	49.58181053
572.07	49.7182933
572.264	49.85171409
572.458	49.99649909
572.653	50.14014656
572.847	50.2797722
573.041	50.42635142
573.235	50.56941371
573.43	50.70592395
573.624	50.84680821
573.818	50.98959115
574.012	51.12891633
574.206	51.27340275
574.4	51.4147066
574.594	51.55814998
574.788	51.69968457
574.983	51.84316773
575.177	51.98690534
575.371	52.12642669
575.565	52.26599353
575.759	52.40869625
575.953	52.54840473
576.147	52.68586401
576.341	52.82234944
576.535	52.95852999
576.729	53.09514849
576.923	53.23301338
577.117	53.3670085
577.31	53.50001668
577.504	53.63551822
577.698	53.77191285
577.892	53.90726713
578.086	54.04077845
578.28	54.17235626
578.474	54.29831776
578.668	54.42526608
578.861	54.55597033
579.055	54.68200112
579.249	54.80758573
579.443	54.93337742
579.636	55.05870139
579.83	55.17857474
580.024	55.30194162
580.218	55.41873906
580.411	55.53616851
580.605	55.6509886
580.799	55.76820009
580.992	55.88693759
581.186	56.00144453
581.38	56.11820726
581.573	56.23457466
581.767	56.34502752
581.961	56.44684668
582.154	56.55408971
582.348	56.66319975
582.541	56.78097497
582.735	56.89283913
582.928	56.98812682
583.122	57.0924821
583.315	57.19477771
583.509	57.29872632
583.702	57.40404366
583.896	57.50729965
584.089	57.60429782
584.283	57.71085399
584.476	57.81223522
584.67	57.91420172
584.863	58.00754288
585.056	58.10334287
585.25	58.19675235
585.443	58.29405311
585.636	58.38382484
585.83	58.47671303
586.023	58.57329724
586.216	58.66372907
586.41	58.75027814
586.603	58.83321175
586.796	58.91668919
586.989	59.00744632
587.183	59.08707761
587.376	59.17181142
587.569	59.25709321
587.762	59.33345119
587.955	59.41930437
588.149	59.49417596
588.342	59.5737475
588.535	59.64981269
588.728	59.72463096
588.921	59.80291679
589.114	59.87439229
589.307	59.94904658
589.5	60.01666977
589.693	60.08415333
589.886	60.15538216
590.08	60.21935107
590.273	60.2903182
590.466	60.35560887
590.659	60.42158112
590.852	60.48584972
591.044	60.54922518
591.237	60.61543371
591.43	60.67311797
591.623	60.72554486
591.816	60.78815533
592.009	60.83529292
592.202	60.89829635
592.395	60.95223327
592.588	61.00532119
592.781	61.0571413
592.973	61.11072626
593.166	61.15804866
593.359	61.20341285
593.552	61.25069316
593.745	61.29743572
593.937	61.34069322
594.13	61.38266765
594.323	61.43043977
594.515	61.47187851
594.708	61.51182144
594.901	61.55509017
595.094	61.60173045
595.286	61.642268
595.479	61.68537163
595.672	61.72748608
595.864	61.76150106
596.057	61.80482179
596.249	61.83745629
596.442	61.87095421
596.635	61.90448078
596.827	61.9401654
597.02	61.97005005
597.212	62.00624138
597.405	62.04052935
597.597	62.07483465
597.79	62.10620857
597.982	62.14333126
598.175	62.18450603
598.367	62.21295078
598.559	62.24753142
598.752	62.2852002
598.944	62.31724785
599.137	62.33952516
599.329	62.36724682
599.521	62.3957457
599.714	62.42494422
599.906	62.45768976
600.098	62.48116003
600.291	62.5136398
600.483	62.54077727
600.675	62.57104365
600.868	62.59998498
601.06	62.62192754
601.252	62.64504625
601.444	62.67024334
601.637	62.69070259
601.829	62.7172261
602.021	62.73437414
602.213	62.75552281
602.405	62.776487
602.597	62.79739025
602.789	62.80818916
602.982	62.82300428
603.174	62.84451525
603.366	62.87151123
603.558	62.89322519
603.75	62.91389667
603.942	62.92701813
604.134	62.94975182
604.326	62.96409034
604.518	62.98020204
604.71	62.99601944
604.902	63.00762998
605.094	63.02579964
605.286	63.04433462
605.478	63.05892853
605.67	63.07726923
605.862	63.09343331
606.054	63.10783408
606.246	63.12183535
606.437	63.13716184
606.629	63.15040119
606.821	63.16682692
607.013	63.18414321
607.205	63.19870803
607.397	63.21002251
607.588	63.21893932
607.78	63.23833517
607.972	63.24823359
608.164	63.25761926
608.355	63.27205283
608.547	63.2861164
608.739	63.30185807
608.93	63.3197732
609.122	63.33402123
609.314	63.3451904
609.505	63.3541517
609.697	63.36528747
609.889	63.382184
610.08	63.39905908
610.272	63.40656911
610.463	63.41720519
610.655	63.42971507
610.847	63.44012837
611.038	63.45304477
611.23	63.46025248
611.421	63.47396321
611.613	63.48699815
611.804	63.48561835
611.996	63.50405712
612.187	63.51670852
612.379	63.53024662
612.57	63.53989829
612.761	63.54938441
612.953	63.55930048
613.144	63.56700523
613.336	63.57311204
613.527	63.58907791
613.718	63.60219168
613.91	63.6136342
614.101	63.62917616
614.292	63.64474137
614.483	63.65706384
614.675	63.66789589
614.866	63.68716979
615.057	63.69364673
615.248	63.70824993
615.44	63.71731282
615.631	63.72830676
615.822	63.74666468
616.013	63.75667711
616.204	63.76379907
616.396	63.76906517
616.587	63.77840083
616.778	63.79143959
616.969	63.7993337
617.16	63.81283503
617.351	63.82856896
617.542	63.84062831
617.733	63.85002524
617.924	63.8496034
618.115	63.85027707
618.306	63.85579029
618.497	63.8631695
618.688	63.87683446
618.879	63.87671208
619.07	63.89274626
619.261	63.90532486
619.452	63.91514165
619.643	63.91990544
619.834	63.92608293
620.025	63.93096558
620.216	63.9449706
620.407	63.95078563
620.597	63.96018259
620.788	63.96560901
620.979	63.97509535
621.17	63.97924221
621.361	63.98534205
621.551	63.99883341
621.742	64.00888304
621.933	64.02447591
622.124	64.03810742
622.314	64.05050347
622.505	64.0612885
622.696	64.06655984
622.886	64.07804014
623.077	64.08273185
623.268	64.08675185
623.458	64.09216876
623.649	64.10837567
623.84	64.11791291
624.03	64.132913
624.221	64.14751704
624.411	64.16361382
624.602	64.17453534
624.792	64.18837635
624.983	64.2002003
625.173	64.21570685
625.364	64.22925952
625.554	64.22867084
625.745	64.24138804
625.935	64.25216301
626.126	64.25841954
626.316	64.27250339
626.507	64.28378326
626.697	64.30142427
626.887	64.31431996
627.078	64.32685427
627.268	64.34068446
627.458	64.35729486
627.649	64.36993946
627.839	64.38019772
628.029	64.38462129
628.22	64.38626814
628.41	64.39892122
628.6	64.40824039
628.79	64.41979162
628.981	64.43746427
629.171	64.45164626
629.361	64.46507914
629.551	64.47916312
629.741	64.49007329
629.932	64.50237847
630.122	64.51821605
630.312	64.52194664
630.502	64.53246576
630.692	64.53518937
630.882	64.54404408
631.072	64.54978054
631.262	64.56138132
631.452	64.56603551
631.642	64.57067469
631.832	64.58033664
632.022	64.60248314
632.212	64.61347416
632.402	64.62296807
632.592	64.64150403
632.782	64.65380534
632.972	64.6623955
633.162	64.67296193
633.352	64.69009145
633.542	64.70102447
633.732	64.71019852
633.922	64.72077371
634.111	64.73422552
634.301	64.74726105
634.491	64.75947029
634.681	64.7772959
634.871	64.79065677
635.06	64.81035794
635.25	64.8291327
635.44	64.84165094
635.63	64.86046008
635.819	64.88513146
636.009	64.8906886
636.199	64.9074513
636.388	64.91970454
636.578	64.92600587
636.768	64.93265179
636.957	64.94645594
637.147	64.95791909
637.337	64.96074161
637.526	64.97702893
637.716	64.99531452
637.905	65.00554854
638.095	65.01725134
638.284	65.0368426
638.474	65.05832275
638.663	65.06417974
638.853	65.0820277
639.042	65.09153211
639.232	65.09747605
639.421	65.11482866
639.611	65.1280046
639.8	65.13571992
639.99	65.14965607
640.179	65.159432
640.368	65.17027408
640.558	65.18648164
640.747	65.20368875
640.936	65.21068651
641.126	65.21788965
641.315	65.23162689
641.504	65.23981311
641.694	65.25282317
641.883	65.26867195
642.072	65.28020233
642.261	65.28105319
642.451	65.28633509
642.64	65.30294195
642.829	65.31042494
643.018	65.32762705
643.207	65.34853573
643.397	65.35380421
643.586	65.36102375
643.775	65.37587193
643.964	65.3905313
644.153	65.40899928
644.342	65.42868268
644.531	65.44431249
644.72	65.45725995
644.909	65.46889222
645.098	65.48371406
645.287	65.49518962
645.476	65.51206359
645.665	65.51760405
645.854	65.53182597
646.043	65.53665918
646.232	65.5488659
646.421	65.55896953
646.61	65.57714027
646.799	65.58738598
646.988	65.59486371
647.177	65.60185994
647.365	65.62360068
647.554	65.64177739
647.743	65.65307994
647.932	65.66463444
648.121	65.68027369
648.309	65.68469914
648.498	65.69529392
648.687	65.70118972
648.876	65.71925917
649.064	65.73574602
649.253	65.75774751
649.442	65.77548616
649.63	65.79927501
649.819	65.81152656
650.008	65.82537051
650.196	65.846056
650.385	65.85998492
650.574	65.86665541
650.762	65.88112508
650.951	65.89737756
651.139	65.90638316
651.328	65.91060938
651.516	65.9168374
651.705	65.92525027
651.893	65.93957446
652.082	65.94725382
652.27	65.95944181
652.459	65.96450427
652.647	65.98211621
652.836	65.99352798
653.024	66.00120646
653.213	66.00325808
653.401	66.00022031
653.589	66.00118335
653.778	66.01231015
653.966	66.02077353
654.154	66.02985026
654.343	66.02855333
654.531	66.04337039
654.719	66.05276312
654.908	66.06472196
655.096	66.07134143
655.284	66.08074525
655.472	66.08924976
655.661	66.09919033
655.849	66.09985552
656.037	66.1076666
656.225	66.11472932
656.413	66.12586354
656.601	66.13887357
656.79	66.14855659
656.978	66.15925774
657.166	66.17790341
657.354	66.19854725
657.542	66.20879734
657.73	66.21825836
657.918	66.23014901
658.106	66.23470684
658.294	66.25464243
658.482	66.2661931
658.67	66.28114701
658.858	66.28948473
659.046	66.29998023
659.234	66.31119238
659.422	66.33175235
659.61	66.3386427
659.798	66.35992256
659.986	66.37201697
660.173	66.38962061
660.361	66.39388753
660.549	66.39335181
660.737	66.39870256
660.925	66.41016086
661.113	66.41051458
661.3	66.41664313
661.488	66.42802887
661.676	66.43395593
661.864	66.44945197
662.051	66.4598092
662.239	66.46696578
662.427	66.47115025
662.614	66.48189664
662.802	66.48999517
662.99	66.50138778
663.177	66.51314172
663.365	66.51901363
663.553	66.53304044
663.74	66.52995348
663.928	66.52838924
664.115	66.52725458
664.303	66.54389164
664.49	66.55753502
664.678	66.56836206
664.866	66.57841315
665.053	66.58102984
665.24	66.58738764
665.428	66.58768667
665.615	66.59797244
665.803	66.6007803
665.99	66.60873615
666.178	66.61650155
666.365	66.61732678
666.552	66.61861285
666.74	66.62170401
666.927	66.62913213
667.114	66.64091427
667.302	66.64587844
667.489	66.64698257
667.676	66.65704256
667.864	66.67104794
668.051	66.68316918
668.238	66.69505765
668.425	66.69920723
668.613	66.7155639
668.8	66.71334844
668.987	66.72820216
669.174	66.73311368
669.361	66.75482657
669.548	66.76045647
669.736	66.77672329
669.923	66.77405553
670.11	66.78237837
670.297	66.80215587
670.484	66.81684154
670.671	66.83097523
670.858	66.84311046
671.045	66.84560488
671.232	66.85208274
671.419	66.85406212
671.606	66.87468293
671.793	66.88954116
671.98	66.89753996
672.167	66.9023724
672.354	66.91667648
672.541	66.91009325
672.728	66.92539019
672.915	66.93384702
673.101	66.94254589
673.288	66.94464733
673.475	66.95041365
673.662	66.95721651
673.849	66.9817383
674.035	66.99235787
674.222	66.99029585
674.409	66.98841186
674.596	66.99129841
674.783	66.98621306
674.969	67.00319075
675.156	67.01134936
675.343	67.03145785
675.529	67.02466433
675.716	67.02518554
675.903	67.04292735
676.089	67.0479769
676.276	67.06217429
676.462	67.07389989
676.649	67.08288414
676.836	67.08468131
677.022	67.10033216
677.209	67.10825104
677.395	67.11690086
677.582	67.1192478
677.768	67.12732388
677.955	67.13528771
678.141	67.14987214
678.328	67.16743779
678.514	67.17551159
678.701	67.18761155
678.887	67.18169373
679.073	67.1912104
679.26	67.1970125
679.446	67.20876616
679.632	67.20939892
679.819	67.21590237
680.005	67.22233223
680.191	67.22949914
680.378	67.23264671
680.564	67.23762167
680.75	67.248237
680.936	67.25386709
681.123	67.26038888
681.309	67.25726221
681.495	67.26630987
681.681	67.26972377
681.867	67.27944728
682.054	67.28419153
682.24	67.28675179
682.426	67.29805979
682.612	67.3149414
682.798	67.32814103
682.984	67.32853365
683.17	67.33466915
683.356	67.34210768
683.542	67.36033748
683.728	67.35702643
683.914	67.36154607
684.1	67.3614889
684.286	67.37336777
684.472	67.3855618
684.658	67.38937194
684.844	67.39473833
685.03	67.4076985
685.216	67.41881594
685.402	67.42036995
685.588	67.43754532
685.774	67.44864647
685.96	67.45627917
686.145	67.4584408
686.331	67.46132782
686.517	67.46406273
686.703	67.46910729
686.889	67.48062362
687.074	67.48937971
687.26	67.49889137
687.446	67.50326715
687.631	67.51330951
687.817	67.52067759
688.003	67.5240988
688.189	67.52584229
688.374	67.52685908
688.56	67.53982403
688.745	67.54153506
688.931	67.53766641
689.117	67.53906859
689.302	67.5492672
689.488	67.53937327
689.673	67.53511415
689.859	67.53325639
690.044	67.53263202
690.23	67.53406154
690.415	67.53772009
690.601	67.54699414
690.786	67.54531483
690.972	67.54244334
691.157	67.53770746
691.343	67.53532576
691.528	67.53701593
691.713	67.5474457
691.899	67.54677299
692.084	67.56175294
692.269	67.56017077
692.455	67.55279417
692.64	67.5562688
692.825	67.55661827
693.011	67.55530765
693.196	67.54682655
693.381	67.54664636
693.566	67.54273846
693.752	67.54160127
693.937	67.54150682
694.122	67.53368413
694.307	67.52626354
694.492	67.51579561
694.678	67.50768004
694.863	67.5006399
695.048	67.49264504
695.233	67.47799544
695.418	67.46087807
695.603	67.44394507
695.788	67.430485
695.973	67.41336014
696.158	67.40245738
696.343	67.39391481
696.528	67.37900026
696.713	67.36574589
696.898	67.37230731
697.083	67.36953525
697.268	67.36797037
697.453	67.34743325
697.638	67.34071693
697.823	67.33779472
698.008	67.32530554
698.192	67.31316808
698.377	67.3050757
698.562	67.30559287
698.747	67.29977506
698.932	67.29005882
699.117	67.28993876
699.301	67.28157317
699.486	67.26771536
699.671	67.26088814
699.856	67.23729217
700.04	67.22936495
700.225	67.2202021
700.41	67.20065579
700.594	67.1755203
700.779	67.15436074
700.964	67.14552774
701.148	67.11611263
701.333	67.1096524
701.517	67.08979015
701.702	67.07230216
701.887	67.05651414
702.071	67.04600662
702.256	67.02491493
702.44	67.005765
702.625	66.99583495
702.809	66.98772954
702.994	66.97254678
703.178	66.96250156
703.362	66.94500967
703.547	66.92521479
703.731	66.90636081
703.916	66.89755203
704.1	66.8840293
704.284	66.87468258
704.469	66.88227512
704.653	66.86057902
704.837	66.84710329
705.022	66.83781109
705.206	66.82333443
705.39	66.81427305
705.575	66.78968051
705.759	66.77557092
705.943	66.75694151
706.127	66.73907934
706.311	66.71128522
706.496	66.68645387
706.68	66.66373447
706.864	66.64795479
707.048	66.6256441
707.232	66.61712008
707.416	66.5992001
707.6	66.58667804
707.785	66.55901527
707.969	66.53473811
708.153	66.52196867
708.337	66.49752805
708.521	66.48265698
708.705	66.45460848
708.889	66.4408957
709.073	66.422601
709.257	66.3950492
709.441	66.38336207
709.624	66.3693042
709.808	66.34538367
709.992	66.32802437
710.176	66.31935888
710.36	66.30814019
710.544	66.29302382
710.728	66.27032093
710.912	66.25985523
711.095	66.24670128
711.279	66.23533696
711.463	66.21871783
711.647	66.19354701
711.83	66.19369488
712.014	66.17836468
712.198	66.14794044
712.382	66.1352417
712.565	66.12478098
712.749	66.09953912
712.933	66.0859346
713.116	66.0763024
713.3	66.04645652
713.483	66.02209524
713.667	66.007639
713.851	65.98380622
714.034	65.9587822
714.218	65.92925426
714.401	65.90318728
714.585	65.88628972
714.768	65.86066672
714.952	65.82571593
715.135	65.78557374
715.319	65.77182973
715.502	65.76483289
715.686	65.72674289
715.869	65.69762603
716.052	65.68513929
716.236	65.66412911
716.419	65.63674468
716.602	65.61495446
716.786	65.57303962
716.969	65.54820863
717.152	65.53496961
717.336	65.5208149
717.519	65.49189567
717.702	65.47341718
717.885	65.44981367
718.069	65.42878859
718.252	65.4069928
718.435	65.38508638
718.618	65.35667609
718.801	65.33024798
718.985	65.31842585
719.168	65.28552874
719.351	65.25774103
719.534	65.23218822
719.717	65.21390829
719.9	65.18380648
720.083	65.15245618
720.266	65.12907268
720.449	65.10898557
720.632	65.09396517
720.815	65.06942261
720.998	65.03799898
721.181	65.00640622
721.364	64.98390452
721.547	64.96296766
721.73	64.94060075
721.913	64.90219669
722.096	64.87610423
722.279	64.84512826
722.461	64.82513144
722.644	64.80247494
722.827	64.77457709
723.01	64.74984434
723.193	64.71440756
723.376	64.68557376
723.558	64.65113373
723.741	64.62660053
723.924	64.61058913
724.107	64.57582564
724.289	64.54134534
724.472	64.51945484
724.655	64.48324705
724.837	64.46025112
725.02	64.43137366
725.203	64.40518068
725.385	64.37127253
725.568	64.33908264
725.75	64.31808891
725.933	64.29838406
726.115	64.27332658
726.298	64.2468986
726.481	64.22659795
726.663	64.21478535
726.845	64.18474576
727.028	64.16524237
727.21	64.15427364
727.393	64.13730823
727.575	64.11276427
727.758	64.0879167
727.94	64.07095328
728.122	64.05146485
728.305	64.02978792
728.487	64.0122324
728.67	63.99291525
728.852	63.96845679
729.034	63.95074119
729.216	63.93490312
729.399	63.92229984
729.581	63.91416116
729.763	63.88994457
729.945	63.874123
730.128	63.86142405
730.31	63.8358867
730.492	63.80624593
730.674	63.79131723
730.856	63.77811338
731.039	63.75660663
731.221	63.73814432
731.403	63.72076528
731.585	63.70155745
731.767	63.67788574
731.949	63.66212715
732.131	63.64016095
732.313	63.62237721
732.495	63.60437245
732.677	63.60057607
732.859	63.57769609
733.041	63.56889905
733.223	63.55268056
733.405	63.53660224
733.587	63.52166954
733.769	63.49457133
733.951	63.47218766
734.132	63.45807621
734.314	63.44571605
734.496	63.4313305
734.678	63.4162369
734.86	63.3878195
735.042	63.37144198
735.223	63.35876259
735.405	63.34453168
735.587	63.33176108
735.769	63.31979705
735.95	63.30452141
736.132	63.29097322
736.314	63.28181706
736.495	63.25819227
736.677	63.2457902
736.859	63.22532832
737.04	63.21228852
737.222	63.18670768
737.403	63.17476712
737.585	63.175292
737.767	63.16176928
737.948	63.15184168
738.13	63.1373489
738.311	63.1164046
738.493	63.10117456
738.674	63.09645666
738.856	63.07890987
739.037	63.06162137
739.219	63.04206322
739.4	63.03113386
739.581	63.0172424
739.763	63.01284515
739.944	62.99639898
740.125	62.98584473
740.307	62.97923819
740.488	62.96897608
740.669	62.95525184
740.851	62.94336674
741.032	62.94501968
741.213	62.92547238
741.395	62.90205684
741.576	62.88930331
741.757	62.87613116
741.938	62.87190756
742.119	62.86844495
742.301	62.85049921
742.482	62.84041773
742.663	62.83467209
742.844	62.8231344
743.025	62.82156642
743.206	62.806657
743.387	62.79369526
743.568	62.78174923
743.749	62.78248506
743.93	62.77101851
744.111	62.761425
744.292	62.75014739
744.473	62.74456611
744.654	62.73493615
744.835	62.72249881
745.016	62.72352959
745.197	62.72055203
745.378	62.70712985
745.559	62.69834548
745.74	62.6819351
745.921	62.68423288
746.102	62.68524233
746.282	62.68215156
746.463	62.67297454
746.644	62.67137841
746.825	62.66320184
747.006	62.66554615
747.186	62.66400715
747.367	62.65405057
747.548	62.64288812
747.728	62.63817895
747.909	62.63567838
748.09	62.62866591
748.27	62.62870608
748.451	62.62055219
748.632	62.60544839
748.812	62.59568775
748.993	62.57931299
749.173	62.57484416
749.354	62.58187647
749.535	62.5824419
749.715	62.5745864
749.896	62.56958408
750.076	62.56032737
750.257	62.56661415
750.437	62.56495453
750.618	62.55850671
750.798	62.55175328
750.978	62.54834459
751.159	62.55256178
751.339	62.5592266
751.52	62.54686198
751.7	62.53854403
751.88	62.54491214
752.061	62.53609388
752.241	62.54245044
752.421	62.54685217
752.601	62.54650681
752.782	62.55971854
752.962	62.57064185
753.142	62.5644325
753.322	62.55988856
753.503	62.55438869
753.683	62.54997437
753.863	62.55357542
754.043	62.54640452
754.223	62.54564596
754.403	62.54521004
754.583	62.55592822
754.764	62.55971464
754.944	62.55953481
755.124	62.5526622
755.304	62.56227985
755.484	62.56599462
755.664	62.5581888
755.844	62.55999008
756.024	62.55211235
756.204	62.55698481
756.384	62.54733373
756.564	62.54453134
756.743	62.53689617
756.923	62.53107237
757.103	62.53903197
757.283	62.54377078
757.463	62.53615791
757.643	62.55113029
757.823	62.54075838
758.002	62.54915319
758.182	62.55094694
758.362	62.52828697
758.542	62.5170455
758.721	62.51002109
758.901	62.50449965
759.081	62.50667731
759.261	62.50049737
759.44	62.51224283
759.62	62.51547103
759.8	62.52200351
759.979	62.50844783
760.159	62.52080946
760.338	62.5214543
760.518	62.52948195
760.698	62.5376812
760.877	62.5372924
761.057	62.53830893
761.236	62.56384599
761.416	62.54988491
761.595	62.55399115
761.775	62.55074592
761.954	62.55262937
762.133	62.552606
762.313	62.55487315
762.492	62.55600112
762.672	62.57130671
762.851	62.57656978
763.03	62.58661499
763.21	62.58345274
763.389	62.58352037
763.568	62.57357635
763.748	62.57244711
763.927	62.59186847
764.106	62.59440595
764.286	62.59414995
764.465	62.58806396
764.644	62.58059
764.823	62.57892941
765.002	62.55928155
765.182	62.55364884
765.361	62.5530739
765.54	62.54954229
765.719	62.56615825
765.898	62.5529798
766.077	62.54767598
766.256	62.55922536
766.435	62.55376977
766.614	62.54698934
766.793	62.53870536
766.972	62.5337246
767.151	62.52943977
767.33	62.52736856
767.509	62.53458188
767.688	62.52396138
767.867	62.52618012
768.046	62.52249089
768.225	62.52507417
768.404	62.53180747
768.583	62.54141979
768.762	62.54797892
768.94	62.53841364
769.119	62.54465779
769.298	62.55017761
769.477	62.52994004
769.656	62.55346873
769.834	62.57134271
770.013	62.55424617
770.192	62.5464001
770.37	62.53867175
770.549	62.54801739
770.728	62.56145795
770.906	62.55969161
771.085	62.56487559
771.264	62.5683758
771.442	62.55763302
771.621	62.55827598
771.799	62.56014742
771.978	62.57347483
772.157	62.57854367
772.335	62.567534
772.514	62.57121693
772.692	62.59237362
772.871	62.59249324
773.049	62.58508324
773.228	62.58513054
773.406	62.57505865
773.584	62.55442974
773.763	62.55779153
773.941	62.56065421
774.119	62.5667705
774.298	62.57026957
774.476	62.56224235
774.655	62.57628542
774.833	62.58035519
775.011	62.58012721
775.189	62.5894859
775.368	62.58742204
775.546	62.58755784
775.724	62.57236864
775.902	62.55945277
776.08	62.56231605
776.259	62.56417275
776.437	62.56293888
776.615	62.55474738
776.793	62.56195689
776.971	62.57179652
777.149	62.58086382
777.327	62.58755814
777.505	62.59448585
777.683	62.58885371
777.861	62.59880604
778.04	62.59849004
778.218	62.59784141
778.395	62.59300995
778.573	62.59327791
778.751	62.59220666
778.929	62.58307594
779.107	62.58321583
779.285	62.57597777
779.463	62.58019243
779.641	62.58312239
779.819	62.58345393
779.997	62.57743583
780.174	62.57547453
780.352	62.58136963
780.53	62.58344568
780.708	62.57733159
780.886	62.57861961
781.063	62.5784924
781.241	62.57353809
781.419	62.57196528
781.596	62.5685185
781.774	62.55289651
781.952	62.5468104
782.129	62.53614811
782.307	62.52954247
782.485	62.52464909
782.662	62.52894689
782.84	62.53205308
783.017	62.53724197
783.195	62.54258236
783.372	62.54685522
783.55	62.54591066
783.727	62.54418034
783.905	62.54428969
784.082	62.54798698
784.26	62.53371065
784.437	62.53084921
784.615	62.53946561
784.792	62.53742825
784.969	62.53461927
785.147	62.54708835
785.324	62.53726509
785.501	62.55454122
785.679	62.56590539
785.856	62.57429982
786.033	62.56910705
786.211	62.58259171
786.388	62.57666275
786.565	62.58378765
786.742	62.59496838
786.92	62.58149823
787.097	62.57835512
787.274	62.561881
787.451	62.56972882
787.628	62.56839932
787.805	62.56355674
787.982	62.57156821
788.16	62.56738415
788.337	62.5582399
788.514	62.56110842
788.691	62.5645477
788.868	62.55647884
789.045	62.57023248
789.222	62.56020241
789.399	62.56632238
789.576	62.54429074
789.753	62.54859512
789.93	62.52938002
790.106	62.54487529
790.283	62.53164944
790.46	62.53168541
790.637	62.53971298
790.814	62.54495583
790.991	62.56413765
791.168	62.55007809
791.344	62.54946621
791.521	62.54384079
791.698	62.54590546
791.875	62.55729121
792.051	62.55354518
792.228	62.56027142
792.405	62.56284707
792.581	62.55899825
792.758	62.5536748
792.935	62.5434549
793.111	62.52902244
793.288	62.53462101
793.465	62.54615951
793.641	62.56523019
793.818	62.5502756
793.994	62.54363886
794.171	62.52662133
794.347	62.52019182
794.524	62.50877518
794.7	62.51343039
794.877	62.51774803
795.053	62.50548522
795.23	62.49724873
795.406	62.49256315
795.583	62.48292878
795.759	62.48077648
795.935	62.4552978
796.112	62.44271212
796.288	62.44675003
796.464	62.43129304
796.641	62.42956333
796.817	62.4234878
796.993	62.45243837
797.169	62.44269079
797.346	62.42873067
797.522	62.42794357
797.698	62.41663526
797.874	62.42011052
798.051	62.41200113
798.227	62.41557576
798.403	62.41325349
798.579	62.41271319
798.755	62.41576322
798.931	62.43549452
799.107	62.42680987
799.283	62.41410469
799.459	62.39939805
799.635	62.41564116
799.811	62.42772211
799.987	62.41406986
800.163	62.43192857
800.339	62.45652708
800.515	62.47363291
800.691	62.43872022
800.867	62.43617302
801.043	62.43345835
801.219	62.45766785
801.395	62.46467245
801.571	62.4585587
801.746	62.4693775
801.922	62.47663478
802.098	62.45612306
802.274	62.4665719
802.45	62.4583655
802.625	62.44335832
802.801	62.45738914
802.977	62.46663215
803.152	62.49391917
803.328	62.51438047
803.504	62.51186566
803.679	62.51607065
803.855	62.50320947
804.031	62.47315902
804.206	62.44689069
804.382	62.47515544
804.557	62.4941928
804.733	62.49951135
804.909	62.47525594
805.084	62.48498284
805.26	62.49052729
805.435	62.4833406
805.61	62.48069417
805.786	62.49435379
805.961	62.50166911
806.137	62.51358015
806.312	62.4942909
806.488	62.46983473
806.663	62.475845
806.838	62.45175048
807.014	62.44595432
807.189	62.43393285
807.364	62.44691673
807.54	62.43229257
807.715	62.43531911
807.89	62.46241711
808.065	62.44396082
808.241	62.42886187
808.416	62.41289636
808.591	62.42441396
808.766	62.40551367
808.941	62.38631436
809.116	62.40666277
809.291	62.37502789
809.467	62.36137998
809.642	62.32271872
809.817	62.32058604
809.992	62.33687816
810.167	62.34893574
810.342	62.35311618
810.517	62.35064763
810.692	62.32539225
810.867	62.33181249
811.042	62.31995379
811.217	62.33394978
811.392	62.33467793
811.567	62.32759132
811.741	62.33624088
811.916	62.34546235
812.091	62.35584231
812.266	62.33213152
812.441	62.34405723
812.616	62.35569386
812.79	62.32975814
812.965	62.36785044
813.14	62.37291193
813.315	62.39110885
813.489	62.38315729
813.664	62.37396898
813.839	62.3623891
814.013	62.32827772
814.188	62.32114454
814.363	62.31004028
814.537	62.33571193
814.712	62.34970952
814.887	62.34488369
815.061	62.36815956
815.236	62.338216
815.41	62.31989107
815.585	62.28382245
815.759	62.32013079
815.934	62.32335109
816.108	62.31194879
816.283	62.30874117
816.457	62.31542835
816.631	62.31858716
816.806	62.32728333
816.98	62.31172427
817.155	62.28873905
817.329	62.29491535
817.503	62.30726519
817.678	62.34255139
817.852	62.34148068
818.026	62.32880889
818.201	62.31505548
818.375	62.3168199
818.549	62.3172694
818.723	62.30141688
818.897	62.30699791
819.072	62.3023076
819.246	62.30493174
819.42	62.2293471
819.594	62.21325167
819.768	62.24340107
819.942	62.23632427
820.116	62.20117178
820.29	62.17317026
820.465	62.12665133
820.639	62.14336723
820.813	62.15638251
820.987	62.15148509
821.161	62.13629678
821.335	62.10563738
821.509	62.10650808
821.682	62.12894001
821.856	62.11168447
822.03	62.1016174
822.204	62.07030427
822.378	62.05608291
822.552	62.04105489
822.726	62.05162218
822.9	62.06364231
823.073	62.07319189
823.247	62.05827417
823.421	62.02472949
823.595	62.028651
823.768	62.04299928
823.942	62.02468794
824.116	62.05562113
824.289	62.02002958
824.463	62.03744497
824.637	62.04721617
824.81	62.07173636
824.984	62.12323263
825.158	62.11851088
825.331	62.092439
825.505	62.09963664
825.678	62.09702062
825.852	62.1290293
826.025	62.11630092
826.199	62.1255793
826.372	62.08541594
826.546	62.0642736
826.719	62.07822812
826.893	62.11192019
827.066	62.11444774
827.24	62.15063102
827.413	62.13923155
827.586	62.15743554
827.76	62.10054003
827.933	62.09517499
828.106	62.09379751
828.28	62.10761243
828.453	62.09347833
828.626	62.02889852
828.799	62.04375747
828.973	62.06465482
829.146	62.04570188
829.319	62.01899174
829.492	62.04764361
829.665	62.07163188
829.839	62.08231977
830.012	62.08748209
830.185	62.09240407
830.358	62.11249654
830.531	62.09476536
830.704	62.07292743
830.877	62.0427563
831.05	62.05737332
831.223	62.02013515
831.396	62.0922816
831.569	62.11181986
831.742	62.09150105
831.915	62.04987756
832.088	62.01258704
832.261	62.01099367
832.434	62.01265414
832.607	61.99522161
832.779	61.96212099
832.952	61.96774921
833.125	61.92354532
833.298	61.87646722
833.471	61.86514998
833.643	61.88890311
833.816	61.88849945
833.989	61.8516499
834.162	61.85887902
834.334	61.86969951
834.507	61.89632327
834.68	61.89320973
834.852	61.91114403
835.025	61.89905972
835.198	61.88685828
835.37	61.86765443
835.543	61.84782824
835.715	61.84734419
835.888	61.87015541
836.061	61.85255596
836.233	61.86852187
836.406	61.88804996
836.578	61.88137731
836.751	61.89435918
836.923	61.90709009
837.095	61.90422488
837.268	61.89226149
837.44	61.93140937
837.613	61.94379693
837.785	61.92128869
837.957	61.92439724
838.13	61.8459507
838.302	61.8257518
838.474	61.83591378
838.647	61.81328124
838.819	61.82496357
838.991	61.84210924
839.163	61.89725398
839.336	61.87349225
839.508	61.85979597
839.68	61.82945284
839.852	61.78802452
840.024	61.74475593
840.196	61.76451512
840.368	61.73885157
840.541	61.76451082
840.713	61.72220484
840.885	61.6734449
841.057	61.62516225
841.229	61.62966457
841.401	61.62111017
841.573	61.62992717
841.745	61.64768505
841.917	61.63036607
842.089	61.62305417
842.261	61.56431765
842.432	61.5448985
842.604	61.50604039
842.776	61.4869621
842.948	61.49511091
843.12	61.49306892
843.292	61.5393193
843.464	61.56879342
843.635	61.5851802
843.807	61.51766621
843.979	61.53520275
844.151	61.48583158
844.322	61.46138686
844.494	61.50506911
844.666	61.41973832
844.837	61.44084819
845.009	61.45760602
845.181	61.38933648
845.352	61.43157839
845.524	61.42401608
845.695	61.3850114
845.867	61.44032852
846.039	61.47031
846.21	61.48109454
846.382	61.47238888
846.553	61.45413434
846.725	61.41955176
846.896	61.38082649
847.068	61.37027609
847.239	61.36557269
847.41	61.38487912
847.582	61.3475632
847.753	61.35833572
847.925	61.37263297
848.096	61.37260352
848.267	61.47085169
848.439	61.39317545
848.61	61.3491268
848.781	61.42090635
848.952	61.37672406
849.124	61.39980625
849.295	61.45303392
849.466	61.42920975
849.637	61.38471857
849.808	61.41299802
849.98	61.35832881
850.151	61.39657619
850.322	61.39285787
850.493	61.38678599
850.664	61.37583605
850.835	61.3834022
851.006	61.3572486
851.177	61.37182383
851.348	61.33192921
851.519	61.33801099
851.69	61.31730311
851.861	61.29114211
852.032	61.2997637
852.203	61.34146641
852.374	61.31265607
852.545	61.29798381
852.716	61.3035802
852.887	61.2875139
853.057	61.25454213
853.228	61.28971838
853.399	61.2736657
853.57	61.31917515
853.741	61.30164867
853.911	61.2981795
854.082	61.29030089
854.253	61.31314061
854.424	61.31377794
854.594	61.40813093
854.765	61.45579256
854.936	61.53631269
855.106	61.54469622
855.277	61.57852392
855.447	61.57606709
855.618	61.56126424
855.789	61.5074827
855.959	61.50623089
856.13	61.53471207
856.3	61.46097882
856.471	61.41888716
856.641	61.44468975
856.812	61.39520756
856.982	61.35326648
857.153	61.33809344
857.323	61.34520116
857.493	61.31810621
857.664	61.31790441
857.834	61.25024818
858.004	61.23960615
858.175	61.21006533
858.345	61.13385415
858.515	60.98958409
858.686	60.98993004
858.856	60.98243516
859.026	61.0078117
859.196	60.95426123
859.367	60.95282895
859.537	60.92924927
859.707	60.80482346
859.877	60.83941457
860.047	60.87052217
860.217	60.8425223
860.387	60.92452909
860.558	60.91860897
860.728	60.89680492
860.898	60.87906856
861.068	60.85386494
861.238	60.84310828
861.408	60.82672509
861.578	60.76744714
861.748	60.71655109
861.918	60.71226227
862.088	60.70149598
862.257	60.69336107
862.427	60.587954
862.597	60.54258266
862.767	60.60358556
862.937	60.53163124
863.107	60.52191837
863.277	60.54197338
863.446	60.51509457
863.616	60.46095394
863.786	60.48783818
863.956	60.31907157
864.125	60.26293387
864.295	60.21744334
864.465	60.27081331
864.634	60.34665845
864.804	60.39589701
864.974	60.40109235
865.143	60.52377867
865.313	60.53863549
865.482	60.54245245
865.652	60.58893777
865.822	60.49516516
865.991	60.57028571
866.161	60.63572625
866.33	60.61011272
866.5	60.64761279
866.669	60.62447066
866.838	60.66213707
867.008	60.63466451
867.177	60.65404627
867.347	60.55920659
867.516	60.63446255
867.685	60.60012689
867.855	60.61940698
868.024	60.47875462
868.193	60.4767124
868.363	60.39562536
868.532	60.31386251
868.701	60.10631141
868.87	60.03138043
869.04	60.01990497
869.209	60.03008521
869.378	60.16537767
869.547	60.04709589
869.716	59.8525147
869.885	59.9254732
870.055	59.9297629
870.224	59.94279775
870.393	59.96654625
870.562	59.87869929
870.731	59.80151178
870.9	59.82094888
871.069	59.78312302
871.238	59.82131089
871.407	59.81097475
871.576	59.8057342
871.745	59.72407131
871.914	59.69731985
872.083	59.7352648
872.251	59.82421339
872.42	59.83349022
872.589	59.66974628
872.758	59.61618875
872.927	59.48671909
873.096	59.48309069
873.264	59.67489927
873.433	59.53403886
873.602	59.5517961
873.771	59.52574172
873.939	59.34528458
874.108	59.50715695
874.277	59.39123199
874.445	59.51316369
874.614	59.49372023
874.783	59.46312953
874.951	59.35332422
875.12	59.5167725
875.288	59.54768198
875.457	59.56679902
875.625	59.59079266
875.794	59.58139063
875.962	59.57812711
876.131	59.55206901
876.299	59.55240275
876.468	59.51096741
876.636	59.59775331
876.805	59.57271851
876.973	59.56602828
877.141	59.67094645
877.31	59.51670373
877.478	59.6829452
877.647	59.60005518
877.815	59.76056861
877.983	59.58284356
878.151	59.50859924
878.32	59.55303095
878.488	59.50927274
878.656	59.32028537
878.824	59.35240757
878.992	59.28563065
879.161	59.2708945
879.329	59.38041456
879.497	59.31417047
879.665	59.43271718
879.833	59.50077889
880.001	59.48102798
880.169	59.33143449
880.337	59.33429787
880.505	59.4843185
880.673	59.19300031
880.841	59.33785568
881.009	59.26012967
881.177	59.21308821
881.345	59.22843405
881.513	59.29948131
881.681	59.2033532
881.849	59.1515634
882.017	59.39366304
882.185	59.48431551
882.352	59.21458056
882.52	59.04151338
882.688	59.00771143
882.856	58.6593988
883.024	58.69396452
883.191	58.72970979
883.359	58.67523726
883.527	58.63514142
883.694	58.70329609
883.862	58.47763675
884.03	58.4561258
884.197	58.46873474
884.365	58.61889833
884.533	58.68842675
884.7	58.43607986
884.868	58.27416404
885.035	58.19350176
885.203	58.1281735
885.37	58.1530636
885.538	57.94405247
885.705	57.81503267
885.873	57.9998901
886.04	58.14474934
886.208	58.12422203
886.375	58.3218467
886.542	58.19952449
886.71	58.00097154
886.877	57.99423316
