Data from printlaranja_Reflection_00002.txt Node
Date: Thu Apr 11 13:54:03 AEST 2024
User: uqkchene_local
Spectrometer: USB4E02642
Trigger mode: 4
Integration Time (sec): 2.541000E-2
Scans to average: 101
Electric dark correction enabled: true
Nonlinearity correction enabled: false
Boxcar width: 10
XAxis mode: Wavelengths
Number of Pixels in Spectrum: 3648
>>>>>Begin Spectral Data<<<<<
179.217	160.71944003
179.432	164.12918108
179.647	148.36231174
179.862	160.15432942
180.077	142.83197329
180.293	119.24402214
180.508	129.39833089
180.723	116.80714767
180.938	83.61437199
181.153	60.22989488
181.368	49.75954933
181.583	41.27692187
181.798	33.13877858
182.013	27.26179161
182.228	26.61430841
182.443	22.87807227
182.658	23.69379705
182.873	24.23405098
183.088	26.23803076
183.303	24.1613041
183.518	23.33328631
183.733	24.50278701
183.948	23.42421487
184.162	24.50645493
184.377	24.27304698
184.592	24.00617423
184.807	24.28870375
185.022	24.09939558
185.237	24.95472542
185.452	24.97188494
185.667	25.3145043
185.882	24.96608415
186.096	25.52939623
186.311	25.64809635
186.526	25.32298267
186.741	24.90013963
186.956	24.08123706
187.17	23.34588753
187.385	23.3195129
187.6	22.31718941
187.815	23.72279363
188.03	23.43165674
188.244	24.37899503
188.459	24.79089302
188.674	24.21870838
188.889	24.41434455
189.103	24.4875536
189.318	24.54368708
189.533	24.75088554
189.747	24.43751442
189.962	23.61433393
190.177	23.29897727
190.391	23.97029772
190.606	23.08740278
190.821	23.38298967
191.035	23.24432446
191.25	23.4974698
191.465	23.39368583
191.679	24.01704324
191.894	23.51241515
192.109	24.22752178
192.323	22.49838634
192.538	22.23127769
192.752	21.2390227
192.967	20.54531982
193.181	20.8089956
193.396	20.35247273
193.611	20.84548239
193.825	20.27268397
194.04	20.09966927
194.254	19.87480368
194.469	19.90405175
194.683	19.65877248
194.898	19.87804212
195.112	19.67829529
195.327	18.19977427
195.541	18.09734839
195.756	18.03764684
195.97	19.16962094
196.184	19.24770394
196.399	19.28979555
196.613	18.47233152
196.828	18.98219954
197.042	19.64857219
197.257	19.26583409
197.471	18.95050775
197.685	18.92270987
197.9	19.73794148
198.114	19.92547753
198.328	20.05565106
198.543	19.89589383
198.757	19.356142
198.971	19.70141093
199.186	20.65800858
199.4	19.59847799
199.614	19.86110867
199.829	20.63805588
200.043	21.82529962
200.257	21.11841989
200.471	20.66724282
200.686	19.99973311
200.9	19.43951047
201.114	20.10652641
201.328	20.91779526
201.543	20.01862944
201.757	19.69515229
201.971	18.92320119
202.185	18.94617047
202.399	17.82454045
202.614	17.05435096
202.828	17.37861039
203.042	18.18868091
203.256	18.99742012
203.47	18.98158545
203.684	17.97046907
203.899	17.95788654
204.113	17.58748259
204.327	17.87276704
204.541	16.98367924
204.755	18.70724338
204.969	18.48653296
205.183	19.73643977
205.397	19.96822034
205.611	19.76216152
205.825	18.9036179
206.039	19.51379599
206.253	19.33982702
206.467	20.22481745
206.681	20.29693422
206.895	21.44250888
207.109	21.35383222
207.323	21.40711129
207.537	20.63034046
207.751	20.66874452
207.965	20.9834618
208.179	21.20251093
208.393	21.4672001
208.607	20.90455666
208.821	21.66210188
209.035	21.85841214
209.249	20.57071656
209.463	20.6163918
209.677	19.86779452
209.891	20.29715468
210.104	19.58899962
210.318	19.99349912
210.532	19.79213084
210.746	20.71326783
210.96	20.71459076
211.174	20.11305976
211.387	19.81934503
211.601	19.70628081
211.815	19.28332541
212.029	18.2125945
212.243	17.6220479
212.456	16.62164423
212.67	16.39441527
212.884	16.4478878
213.098	16.8705313
213.311	16.13817338
213.525	16.49844656
213.739	17.24886707
213.953	17.66772718
214.166	17.02315172
214.38	16.3410645
214.594	17.8666526
214.807	17.64555129
215.021	17.46180269
215.235	17.21552257
215.448	16.99761426
215.662	17.06772463
215.876	16.8544881
216.089	17.63271454
216.303	17.73542963
216.516	18.06731822
216.73	18.55540073
216.944	19.50427773
217.157	19.22616973
217.371	19.44247215
217.584	19.81716948
217.798	19.61305188
218.011	19.09255018
218.225	18.11228201
218.439	17.06356319
218.652	17.83223351
218.866	18.25815151
219.079	17.1714281
219.293	17.19241215
219.506	18.10605318
219.719	17.38570011
219.933	17.3271296
220.146	17.22057681
220.36	17.25617884
220.573	16.9850686
220.787	17.69392931
221	19.36762863
221.214	19.1741773
221.427	18.16723538
221.64	18.17325413
221.854	18.51800855
222.067	18.82967789
222.28	18.9614061
222.494	18.4282657
222.707	18.9750321
222.92	19.70689711
223.134	19.79159974
223.347	19.62404272
223.56	20.52962128
223.774	20.73619004
223.987	20.47903957
224.2	20.09289933
224.414	20.17536255
224.627	20.7472747
224.84	20.54976888
225.053	20.40855066
225.267	20.24078051
225.48	18.7173098
225.693	19.05137883
225.906	20.2300544
226.119	20.13998824
226.333	19.70319703
226.546	18.98434697
226.759	18.48425286
226.972	19.3454066
227.185	18.68972086
227.398	18.68957749
227.612	17.97704047
227.825	17.84974602
228.038	16.73846645
228.251	15.63470452
228.464	15.61145141
228.677	16.99105835
228.89	17.90716762
229.103	17.65631669
229.316	18.22940885
229.529	17.56030617
229.743	16.92775355
229.956	16.96474057
230.169	16.38296064
230.382	15.54752066
230.595	15.95285858
230.808	15.39947559
231.021	14.76712096
231.234	15.55303042
231.447	15.73379227
231.66	16.7374341
231.872	16.89770339
232.085	17.47749013
232.298	17.37515216
232.511	17.29284516
232.724	18.06072514
232.937	17.17263974
233.15	16.0888114
233.363	14.83956421
233.576	14.28267045
233.789	13.06678853
234.002	13.54894322
234.214	13.34648283
234.427	13.68382674
234.64	14.06240617
234.853	14.77352937
235.066	14.5306039
235.279	14.24630806
235.491	15.06982627
235.704	14.88212711
235.917	13.68333619
236.13	12.63544312
236.342	12.13793377
236.555	11.36961157
236.768	11.39499009
236.981	10.99537595
237.193	10.53122276
237.406	10.92240435
237.619	11.88138038
237.832	12.38313337
238.044	13.09234079
238.257	14.13995877
238.47	13.99303717
238.682	14.17430276
238.895	13.42815254
239.108	14.13866031
239.32	13.57780475
239.533	14.01020533
239.746	13.95764177
239.958	13.45259543
240.171	13.31050333
240.383	14.22087803
240.596	14.81604154
240.808	15.00550661
241.021	15.40579318
241.234	15.27296687
241.446	15.86296495
241.659	16.10280126
241.871	16.25734057
242.084	15.85081323
242.296	15.70846145
242.509	15.15352018
242.721	14.54511433
242.934	15.97023447
243.146	16.06907995
243.359	16.43786237
243.571	15.61015891
243.784	15.29415783
243.996	15.34361439
244.208	15.55582901
244.421	15.39327103
244.633	15.98969149
244.846	15.74289828
245.058	15.64373131
245.27	15.96133404
245.483	16.11676815
245.695	16.16199765
245.907	16.48533447
246.12	17.26178397
246.332	17.28823812
246.544	17.62644271
246.757	18.12041587
246.969	18.6784015
247.181	19.06860559
247.394	17.86442406
247.606	18.48421684
247.818	18.28851078
248.03	18.657843
248.243	19.29211343
248.455	18.77363067
248.667	19.20818303
248.879	20.14636596
249.092	18.50120368
249.304	18.46507812
249.516	17.97296715
249.728	18.13427921
249.94	18.34421395
250.153	18.33371687
250.365	17.58298233
250.577	17.82911474
250.789	18.18657237
251.001	18.0633555
251.213	17.43880111
251.425	17.71559832
251.637	17.5354744
251.85	18.27621977
252.062	17.7045402
252.274	18.20306106
252.486	17.64909897
252.698	16.81515825
252.91	16.7631812
253.122	16.79023315
253.334	16.32700209
253.546	17.03644728
253.758	16.71870111
253.97	17.14212276
254.182	16.87383446
254.394	15.63524648
254.606	15.81741495
254.818	16.17829123
255.03	15.92555995
255.242	15.16061994
255.454	14.65353031
255.666	14.86720757
255.877	14.18342045
256.089	13.12151577
256.301	12.82014196
256.513	12.52447781
256.725	12.97046145
256.937	13.35270823
257.149	13.82222567
257.361	14.35289953
257.572	14.01031947
257.784	15.04606677
257.996	15.05687658
258.208	14.83188646
258.42	15.34937973
258.631	15.52989149
258.843	16.13143401
259.055	16.00459328
259.267	16.17421493
259.479	16.224377
259.69	16.67359852
259.902	16.78714887
260.114	16.74365753
260.325	16.7012126
260.537	17.35428312
260.749	17.03330044
260.961	17.01923842
261.172	15.84396184
261.384	16.04376089
261.596	16.52857354
261.807	16.34511493
262.019	16.95979561
262.23	15.75042858
262.442	15.61453313
262.654	15.86160007
262.865	15.62128764
263.077	16.16878844
263.288	16.24607477
263.5	15.90300376
263.712	15.73211749
263.923	15.10196577
264.135	14.88149225
264.346	14.84163047
264.558	14.07455013
264.769	13.37839291
264.981	13.55787872
265.192	13.4648538
265.404	13.97990695
265.615	14.86215522
265.827	14.04409534
266.038	14.19244952
266.25	14.07200943
266.461	13.25314894
266.673	13.93057494
266.884	14.10142924
267.095	14.47035889
267.307	14.01726781
267.518	13.29501989
267.73	13.37416129
267.941	13.77827684
268.152	13.48987223
268.364	13.70801983
268.575	13.99285503
268.786	14.60353207
268.998	15.60288208
269.209	16.05924553
269.42	16.24249955
269.632	16.84749831
269.843	17.28776046
270.054	17.08582179
270.265	16.93462876
270.477	16.32733924
270.688	16.46786801
270.899	16.74473414
271.11	16.88386953
271.322	16.55465976
271.533	16.90320724
271.744	16.74552422
271.955	16.30236634
272.166	16.02083505
272.378	15.56117653
272.589	16.22363066
272.8	15.75946282
273.011	15.62565592
273.222	15.62891295
273.433	15.21639443
273.644	15.55017991
273.856	15.61409871
274.067	14.28996923
274.278	13.3127715
274.489	13.13537224
274.7	12.96469102
274.911	12.87275824
275.122	12.81113373
275.333	12.58417899
275.544	11.95132008
275.755	12.42530949
275.966	12.0645465
276.177	11.84021366
276.388	12.10917343
276.599	12.58846758
276.81	13.31037017
277.021	13.34759152
277.232	13.42004336
277.443	13.80162464
277.654	13.28803595
277.865	13.40805087
278.076	12.61014356
278.287	12.52695511
278.497	13.29042342
278.708	13.8227725
278.919	13.72731835
279.13	14.07620054
279.341	14.33787045
279.552	14.73421964
279.763	14.56287579
279.973	14.6562974
280.184	14.59662716
280.395	14.42204405
280.606	14.9581246
280.817	14.60739662
281.027	14.19282902
281.238	13.56840751
281.449	13.24304667
281.66	13.38463806
281.87	12.79151616
282.081	12.50013726
282.292	12.89381215
282.503	13.06396887
282.713	13.08935269
282.924	13.46139462
283.135	13.53731802
283.345	14.09881891
283.556	14.52966768
283.767	14.15832892
283.977	14.31760105
284.188	14.29948487
284.399	14.3577944
284.609	14.00154648
284.82	14.58462492
285.03	14.03786367
285.241	13.9996897
285.451	13.95332016
285.662	14.12276436
285.873	14.37486482
286.083	14.43764781
286.294	14.78755867
286.504	15.09925976
286.715	14.47153023
286.925	15.02533279
287.136	14.85716309
287.346	14.26601352
287.557	13.92613057
287.767	13.4331247
287.978	13.26465876
288.188	13.56150413
288.399	13.05098392
288.609	13.86061729
288.819	13.58559697
289.03	13.81021676
289.24	13.4221833
289.451	13.64756219
289.661	14.28354167
289.871	14.34170372
290.082	14.3655024
290.292	14.26478265
290.502	14.30004675
290.713	13.98366399
290.923	13.41201155
291.133	13.6029385
291.344	13.36353967
291.554	13.06828055
291.764	13.10586799
291.974	12.95347068
292.185	13.01607879
292.395	12.51548007
292.605	12.03679231
292.815	11.93299566
293.026	11.30306201
293.236	11.36962236
293.446	10.98556224
293.656	10.74221721
293.866	10.35524851
294.077	9.77387579
294.287	9.39294231
294.497	8.95268964
294.707	8.51799513
294.917	8.22646177
295.127	7.95396309
295.337	7.86602147
295.548	7.46297161
295.758	7.23127317
295.968	7.18082458
296.178	6.97860027
296.388	6.93129506
296.598	6.77644148
296.808	6.63179788
297.018	6.47705249
297.228	6.43155325
297.438	6.38109171
297.648	6.2112063
297.858	6.18777051
298.068	5.95978891
298.278	5.89270361
298.488	5.88079451
298.698	5.8664178
298.908	5.83798635
299.118	5.78916532
299.328	5.73719608
299.538	5.68577029
299.748	5.60991615
299.957	5.52254075
300.167	5.46038074
300.377	5.32286662
300.587	5.26727752
300.797	5.13726832
301.007	5.08126014
301.217	5.08608955
301.426	5.0609599
301.636	4.98908302
301.846	4.91142177
302.056	4.87167119
302.266	4.82228566
302.475	4.82653385
302.685	4.79083434
302.895	4.75955875
303.105	4.70723871
303.314	4.66235574
303.524	4.63190962
303.734	4.6124164
303.944	4.58574869
304.153	4.56323769
304.363	4.5702797
304.573	4.54022867
304.782	4.55302442
304.992	4.53792512
305.202	4.52980104
305.411	4.50410084
305.621	4.48712717
305.831	4.47203391
306.04	4.45687528
306.25	4.46328702
306.459	4.4567242
306.669	4.46624425
306.878	4.46068812
307.088	4.45475173
307.298	4.42684939
307.507	4.41858355
307.717	4.41405312
307.926	4.41093993
308.136	4.39737463
308.345	4.38606959
308.555	4.37976328
308.764	4.37358596
308.974	4.37184476
309.183	4.35795199
309.392	4.34606784
309.602	4.33659122
309.811	4.33219313
310.021	4.30695457
310.23	4.30226224
310.44	4.29579497
310.649	4.28294491
310.858	4.27491686
311.068	4.25215776
311.277	4.23765017
311.486	4.23370572
311.696	4.24083892
311.905	4.23806591
312.114	4.24263801
312.324	4.23652016
312.533	4.23041436
312.742	4.22296499
312.952	4.22293375
313.161	4.21653833
313.37	4.21099036
313.579	4.21247233
313.789	4.21214919
313.998	4.20723007
314.207	4.20516529
314.416	4.20809569
314.625	4.20270547
314.835	4.19436807
315.044	4.1940919
315.253	4.19065856
315.462	4.17787645
315.671	4.18460084
315.88	4.18176598
316.09	4.17127313
316.299	4.16739878
316.508	4.15314639
316.717	4.14205429
316.926	4.13665231
317.135	4.13628327
317.344	4.12845985
317.553	4.12224852
317.762	4.12624199
317.971	4.12309397
318.18	4.12085593
318.389	4.12327715
318.598	4.12044903
318.807	4.12010512
319.016	4.11619485
319.225	4.11870713
319.434	4.11045321
319.643	4.10179677
319.852	4.11084952
320.061	4.10283219
320.27	4.09151975
320.479	4.08623462
320.688	4.07951475
320.897	4.07901254
321.105	4.07745448
321.314	4.07533584
321.523	4.07675815
321.732	4.07422962
321.941	4.07812601
322.15	4.06914095
322.359	4.06214528
322.567	4.06177757
322.776	4.05420537
322.985	4.0493327
323.194	4.04576583
323.403	4.04206133
323.611	4.03926559
323.82	4.03859028
324.029	4.0398967
324.237	4.03599412
324.446	4.03175205
324.655	4.036446
324.864	4.03341243
325.072	4.0317262
325.281	4.02679949
325.49	4.02515626
325.698	4.02323969
325.907	4.02102544
326.116	4.01609482
326.324	4.01297549
326.533	4.01265737
326.741	4.01185604
326.95	4.00389096
327.159	4.00745648
327.367	4.00496902
327.576	4.00296
327.784	4.00194304
327.993	3.99716632
328.201	3.99427822
328.41	3.99143561
328.618	3.98908373
328.827	3.99067017
329.035	3.98789374
329.244	3.99000463
329.452	3.98971959
329.661	3.99495495
329.869	3.99533752
330.078	3.99638755
330.286	3.99163684
330.495	3.99414647
330.703	3.99176544
330.911	3.99183538
331.12	3.98727191
331.328	3.9888335
331.537	3.98276681
331.745	3.98573859
331.953	3.98534418
332.162	3.98797071
332.37	3.98943802
332.578	3.99088339
332.787	3.98770115
332.995	3.98721294
333.203	3.98532365
333.411	3.98082491
333.62	3.97850963
333.828	3.97850441
334.036	3.97430416
334.244	3.97331955
334.453	3.9722361
334.661	3.97574809
334.869	3.97267592
335.077	3.9724604
335.285	3.96879936
335.494	3.97154558
335.702	3.97347332
335.91	3.977975
336.118	3.97434703
336.326	3.97367833
336.534	3.97131975
336.742	3.96594288
336.951	3.96499557
337.159	3.96641819
337.367	3.96831557
337.575	3.9664841
337.783	3.96768915
337.991	3.97019115
338.199	3.96934397
338.407	3.96927161
338.615	3.97234393
338.823	3.96807717
339.031	3.96234809
339.239	3.96199853
339.447	3.96216102
339.655	3.96418026
339.863	3.96502626
340.071	3.96111429
340.279	3.95896869
340.487	3.96027464
340.695	3.96154439
340.903	3.96051005
341.11	3.96407835
341.318	3.96231716
341.526	3.95893544
341.734	3.95642114
341.942	3.95855699
342.15	3.96039124
342.358	3.95643948
342.565	3.95584191
342.773	3.95597164
342.981	3.95126654
343.189	3.95392248
343.397	3.95741718
343.604	3.95794793
343.812	3.95607994
344.02	3.95440139
344.228	3.95389106
344.435	3.95488822
344.643	3.95493624
344.851	3.95511147
345.058	3.95523605
345.266	3.95125974
345.474	3.95202841
345.681	3.9518487
345.889	3.95453034
346.097	3.95189303
346.304	3.95019294
346.512	3.95047821
346.72	3.95364176
346.927	3.95421325
347.135	3.95366417
347.342	3.95373424
347.55	3.95188833
347.758	3.94961534
347.965	3.95039067
348.173	3.9522996
348.38	3.95564377
348.588	3.95987159
348.795	3.96199925
349.003	3.96102444
349.21	3.9611993
349.418	3.96049634
349.625	3.96072633
349.833	3.96217659
350.04	3.96576105
350.247	3.96814484
350.455	3.97102176
350.662	3.97389729
350.87	3.97692514
351.077	3.97594895
351.284	3.97750826
351.492	3.98118156
351.699	3.98562366
351.906	3.98927045
352.114	3.98820075
352.321	3.98756602
352.528	3.98459192
352.736	3.98357636
352.943	3.98365796
353.15	3.98390681
353.358	3.98605456
353.565	3.98783328
353.772	3.98848953
353.979	3.9973064
354.187	3.9961562
354.394	3.99455388
354.601	3.99590902
354.808	3.99471766
355.015	3.99455015
355.223	3.9924253
355.43	3.99261257
355.637	3.99389702
355.844	3.99332832
356.051	3.99260152
356.258	3.99318578
356.465	4.00055548
356.673	4.00376889
356.88	4.00782648
357.087	4.01058954
357.294	4.00805626
357.501	4.00798884
357.708	4.01185269
357.915	4.01333611
358.122	4.01508715
358.329	4.01256441
358.536	4.01373084
358.743	4.01364325
358.95	4.01589083
359.157	4.02030315
359.364	4.02006915
359.571	4.0216661
359.778	4.02482093
359.985	4.02179106
360.192	4.02639968
360.399	4.02921842
360.606	4.0320766
360.812	4.0303615
361.019	4.03260397
361.226	4.03227313
361.433	4.03314327
361.64	4.03635238
361.847	4.03892398
362.054	4.03712331
362.26	4.03795178
362.467	4.04078759
362.674	4.04394218
362.881	4.04619238
363.088	4.04813332
363.294	4.05038966
363.501	4.04705614
363.708	4.04865771
363.915	4.05299522
364.121	4.05483848
364.328	4.0604945
364.535	4.06012131
364.741	4.06346675
364.948	4.06244586
365.155	4.06605599
365.361	4.06634941
365.568	4.06717193
365.775	4.06983438
365.981	4.07252777
366.188	4.07253459
366.395	4.0757956
366.601	4.07834393
366.808	4.07747447
367.014	4.07850886
367.221	4.08137571
367.427	4.08515785
367.634	4.08660147
367.84	4.09259787
368.047	4.0957361
368.254	4.09671456
368.46	4.10030376
368.667	4.10071273
368.873	4.10336671
369.079	4.10151952
369.286	4.10221366
369.492	4.10456781
369.699	4.10795929
369.905	4.11279026
370.112	4.11489286
370.318	4.11641553
370.524	4.12176378
370.731	4.12526736
370.937	4.12796186
371.144	4.13471468
371.35	4.14021778
371.556	4.14306138
371.763	4.1457756
371.969	4.14821071
372.175	4.15102891
372.381	4.15268587
372.588	4.15179954
372.794	4.15292152
373	4.1585122
373.206	4.16031339
373.413	4.16655211
373.619	4.17294859
373.825	4.17542651
374.031	4.17724513
374.238	4.17993381
374.444	4.18149453
374.65	4.18487667
374.856	4.18762673
375.062	4.19111928
375.268	4.19603132
375.475	4.19650984
375.681	4.19956431
375.887	4.19958443
376.093	4.2033791
376.299	4.20139888
376.505	4.20289925
376.711	4.20788285
376.917	4.21534389
377.123	4.22336711
377.329	4.22754992
377.535	4.23044942
377.741	4.23675673
377.947	4.23971378
378.153	4.24164932
378.359	4.24790927
378.565	4.25081311
378.771	4.25735588
378.977	4.26111555
379.183	4.26421606
379.389	4.2690061
379.595	4.27107225
379.801	4.27492792
380.007	4.27357626
380.213	4.2804443
380.418	4.28319348
380.624	4.29238963
380.83	4.30138889
381.036	4.30688771
381.242	4.30834818
381.448	4.30838807
381.653	4.306632
381.859	4.31242622
382.065	4.31167369
382.271	4.31494651
382.476	4.32164011
382.682	4.32197492
382.888	4.32657267
383.094	4.33002751
383.299	4.33209124
383.505	4.33776469
383.711	4.34003435
383.916	4.34436044
384.122	4.3500436
384.328	4.35833789
384.533	4.36315917
384.739	4.36556767
384.945	4.37056627
385.15	4.37057918
385.356	4.3702455
385.562	4.37468552
385.767	4.37739129
385.973	4.3864211
386.178	4.39090658
386.384	4.39164122
386.589	4.39720574
386.795	4.40117122
387	4.40850922
387.206	4.41326892
387.411	4.41576276
387.617	4.42029888
387.822	4.42148133
388.028	4.42587596
388.233	4.42738177
388.439	4.43001102
388.644	4.43205739
388.85	4.43539517
389.055	4.44563075
389.26	4.44973911
389.466	4.45705591
389.671	4.46307277
389.877	4.46747949
390.082	4.47345363
390.287	4.47879977
390.493	4.48105883
390.698	4.48906717
390.903	4.49354911
391.109	4.49593047
391.314	4.50038104
391.519	4.50220274
391.724	4.50753849
391.93	4.51317622
392.135	4.51570841
392.34	4.52380413
392.545	4.52933308
392.751	4.53321159
392.956	4.53797843
393.161	4.53979713
393.366	4.53973828
393.571	4.54137892
393.776	4.54339492
393.982	4.54574378
394.187	4.54795572
394.392	4.5491539
394.597	4.54984991
394.802	4.55428111
395.007	4.55785136
395.212	4.56073996
395.417	4.56383502
395.622	4.56685099
395.827	4.56970529
396.032	4.57306841
396.237	4.57297961
396.442	4.57652653
396.647	4.57385334
396.852	4.57708273
397.057	4.57887336
397.262	4.58063733
397.467	4.58537218
397.672	4.58817918
397.877	4.591163
398.082	4.59216183
398.287	4.59534759
398.492	4.59665812
398.697	4.59798333
398.902	4.60135547
399.107	4.59996555
399.311	4.598425
399.516	4.5993939
399.721	4.6014724
399.926	4.60173783
400.131	4.60459561
400.336	4.60433544
400.54	4.60727488
400.745	4.60963531
400.95	4.61151213
401.155	4.61209778
401.359	4.6111595
401.564	4.61326003
401.769	4.61332571
401.974	4.6146555
402.178	4.61658061
402.383	4.61778272
402.588	4.61792193
402.792	4.62071273
402.997	4.62281418
403.202	4.62116366
403.406	4.62558801
403.611	4.62791264
403.815	4.62760563
404.02	4.62671593
404.225	4.62782443
404.429	4.62730936
404.634	4.62598934
404.838	4.62503148
405.043	4.6249877
405.247	4.62640975
405.452	4.62637772
405.656	4.62964174
405.861	4.62732599
406.065	4.62707464
406.27	4.62581634
406.474	4.6232745
406.679	4.62428314
406.883	4.62376357
407.088	4.62251935
407.292	4.62232615
407.497	4.62388641
407.701	4.62132641
407.905	4.62260938
408.11	4.62291313
408.314	4.6241767
408.518	4.6239067
408.723	4.62491381
408.927	4.6263212
409.131	4.62683709
409.336	4.62742764
409.54	4.62515142
409.744	4.62195445
409.949	4.62111384
410.153	4.62264419
410.357	4.62185382
410.561	4.62041179
410.766	4.62048999
410.97	4.61690031
411.174	4.61787246
411.378	4.61908751
411.582	4.61888983
411.787	4.61863536
411.991	4.62024363
412.195	4.61815791
412.399	4.61827614
412.603	4.61778163
412.807	4.6160136
413.011	4.61481343
413.215	4.61366877
413.419	4.61337535
413.624	4.61280934
413.828	4.61537742
414.032	4.61804554
414.236	4.6180132
414.44	4.61637732
414.644	4.61541696
414.848	4.61667361
415.052	4.61529986
415.256	4.61791047
415.46	4.6176505
415.664	4.61705105
415.868	4.61719916
416.072	4.61896031
416.275	4.61654497
416.479	4.61748725
416.683	4.61774101
416.887	4.61865785
417.091	4.62088477
417.295	4.6205455
417.499	4.6225086
417.703	4.62339289
417.906	4.62237722
418.11	4.62113782
418.314	4.62220568
418.518	4.62217102
418.722	4.62347563
418.925	4.62442044
419.129	4.62470325
419.333	4.62796817
419.537	4.630575
419.74	4.6307809
419.944	4.63164415
420.148	4.63120264
420.352	4.63076988
420.555	4.63222748
420.759	4.63319991
420.963	4.63366038
421.166	4.63147086
421.37	4.63081845
421.573	4.63369321
421.777	4.63245745
421.981	4.63317
422.184	4.63287045
422.388	4.6327702
422.591	4.63100479
422.795	4.63190417
422.999	4.63177448
423.202	4.6324097
423.406	4.63238996
423.609	4.6302334
423.813	4.6298254
424.016	4.63220515
424.22	4.63381912
424.423	4.63724202
424.627	4.63537847
424.83	4.63593775
425.033	4.6346341
425.237	4.63456036
425.44	4.63479769
425.644	4.63728128
425.847	4.63665713
426.05	4.6368101
426.254	4.63570157
426.457	4.63796053
426.66	4.63881865
426.864	4.64012062
427.067	4.63993498
427.27	4.64164718
427.474	4.64277142
427.677	4.64509312
427.88	4.64689481
428.084	4.64494039
428.287	4.64063145
428.49	4.63955939
428.693	4.63835056
428.896	4.63918263
429.1	4.63952363
429.303	4.64089642
429.506	4.63997937
429.709	4.64450312
429.912	4.64237268
430.116	4.6448288
430.319	4.64540571
430.522	4.64720752
430.725	4.64592442
430.928	4.64571123
431.131	4.64588138
431.334	4.64534767
431.537	4.64754552
431.74	4.64848646
431.943	4.64838212
432.146	4.65033567
432.349	4.65145689
432.552	4.65313268
432.755	4.65290256
432.958	4.65146091
433.161	4.65245437
433.364	4.65363357
433.567	4.65554471
433.77	4.65701631
433.973	4.65446202
434.176	4.65571199
434.379	4.65352686
434.582	4.65482728
434.785	4.65579812
434.988	4.65800665
435.19	4.65865816
435.393	4.66140384
435.596	4.66268979
435.799	4.65971633
436.002	4.66266514
436.205	4.66494873
436.407	4.66453105
436.61	4.66394138
436.813	4.66574133
437.016	4.66677493
437.218	4.66965264
437.421	4.67048812
437.624	4.67141963
437.827	4.67077285
438.029	4.67076345
438.232	4.67102322
438.435	4.67111357
438.637	4.67140282
438.84	4.67099454
439.043	4.67259915
439.245	4.67308743
439.448	4.67481078
439.65	4.6733241
439.853	4.67419953
440.056	4.67761959
440.258	4.67449789
440.461	4.67392798
440.663	4.67439617
440.866	4.67662472
441.068	4.67933558
441.271	4.68132325
441.473	4.67992817
441.676	4.68193799
441.878	4.68297002
442.081	4.68364427
442.283	4.68644582
442.486	4.68967387
442.688	4.69220946
442.89	4.69333801
443.093	4.6959378
443.295	4.69360181
443.498	4.69313795
443.7	4.69459752
443.902	4.69718531
444.105	4.69763031
444.307	4.69721677
444.509	4.69913883
444.712	4.70139155
444.914	4.70333354
445.116	4.70370069
445.319	4.70441838
445.521	4.70538108
445.723	4.70762518
445.925	4.70764885
446.128	4.70731969
446.33	4.71000103
446.532	4.70933959
446.734	4.71083113
446.936	4.71164688
447.139	4.71394449
447.341	4.71383986
447.543	4.71917583
447.745	4.72362996
447.947	4.72274461
448.149	4.72515861
448.351	4.72702783
448.553	4.72634149
448.755	4.72713702
448.958	4.72866082
449.16	4.72864866
449.362	4.7308724
449.564	4.73212642
449.766	4.73346799
449.968	4.73587781
450.17	4.74017512
450.372	4.7432554
450.574	4.74519436
450.776	4.74798359
450.978	4.75020509
451.179	4.7517834
451.381	4.75299796
451.583	4.75515462
451.785	4.75666348
451.987	4.75749768
452.189	4.7619983
452.391	4.76381513
452.593	4.76617287
452.795	4.76986898
452.996	4.77360991
453.198	4.77577398
453.4	4.7791524
453.602	4.78335573
453.804	4.78521131
454.005	4.78547724
454.207	4.78871341
454.409	4.78886208
454.611	4.79256117
454.812	4.7953741
455.014	4.79736843
455.216	4.79924393
455.417	4.80385188
455.619	4.80702568
455.821	4.81046451
456.022	4.81224035
456.224	4.81491028
456.426	4.81766095
456.627	4.81969524
456.829	4.8234757
457.031	4.82806736
457.232	4.83262971
457.434	4.8365088
457.635	4.84065235
457.837	4.84416547
458.038	4.84998512
458.24	4.85515364
458.441	4.85830918
458.643	4.86293476
458.844	4.86725888
459.046	4.87174431
459.247	4.87841603
459.449	4.88123722
459.65	4.88396852
459.852	4.888596
460.053	4.89408622
460.254	4.89956843
460.456	4.90667615
460.657	4.9116612
460.859	4.91741201
461.06	4.92231478
461.261	4.92711623
461.463	4.93126984
461.664	4.93612828
461.865	4.94208449
462.066	4.94719021
462.268	4.95248739
462.469	4.96051657
462.67	4.96656785
462.872	4.97181317
463.073	4.97792537
463.274	4.98381302
463.475	4.98933032
463.676	4.9967273
463.878	5.00202344
464.079	5.01041313
464.28	5.01683985
464.481	5.02328008
464.682	5.02886402
464.883	5.03620937
465.085	5.04374449
465.286	5.05120163
465.487	5.05981552
465.688	5.06893469
465.889	5.07483271
466.09	5.08190077
466.291	5.08948293
466.492	5.0970194
466.693	5.1046688
466.894	5.11434835
467.095	5.1234771
467.296	5.12936085
467.497	5.13728765
467.698	5.14604339
467.899	5.15641615
468.1	5.16695139
468.301	5.17514107
468.502	5.18272496
468.703	5.19038661
468.903	5.19865863
469.104	5.20581614
469.305	5.21502372
469.506	5.22442438
469.707	5.2340192
469.908	5.24227583
470.109	5.25348446
470.309	5.26317101
470.51	5.27279401
470.711	5.28269719
470.912	5.29050961
471.112	5.29867136
471.313	5.30819663
471.514	5.31911039
471.715	5.32844382
471.915	5.33784988
472.116	5.34613904
472.317	5.35503096
472.517	5.3644671
472.718	5.37648293
472.919	5.38911886
473.119	5.40016051
473.32	5.4117624
473.521	5.4213799
473.721	5.4325139
473.922	5.44223213
474.122	5.45273632
474.323	5.46394484
474.523	5.47533611
474.724	5.48494297
474.925	5.49483853
475.125	5.50686949
475.326	5.51812597
475.526	5.52895675
475.727	5.54090396
475.927	5.55151821
476.127	5.56268424
476.328	5.57403856
476.528	5.58552537
476.729	5.59562018
476.929	5.60677883
477.13	5.61714917
477.33	5.62905833
477.53	5.64023492
477.731	5.65165739
477.931	5.66320412
478.131	5.67527444
478.332	5.68582633
478.532	5.69811425
478.732	5.7099158
478.933	5.72361598
479.133	5.73597789
479.333	5.7482205
479.533	5.76174868
479.734	5.77529454
479.934	5.78653576
480.134	5.80062215
480.334	5.81449356
480.534	5.8279785
480.735	5.84306591
480.935	5.8586724
481.135	5.87219982
481.335	5.88600689
481.535	5.90173648
481.735	5.91554899
481.935	5.93140722
482.136	5.94624581
482.336	5.9622413
482.536	5.9788961
482.736	5.9930165
482.936	6.00888893
483.136	6.02628039
483.336	6.04434715
483.536	6.06137301
483.736	6.07682369
483.936	6.09204491
484.136	6.11160733
484.336	6.12998554
484.536	6.14938345
484.736	6.16766723
484.936	6.18580025
485.135	6.20485883
485.335	6.22352913
485.535	6.24558512
485.735	6.26286214
485.935	6.28520867
486.135	6.3044796
486.335	6.32618962
486.534	6.34634366
486.734	6.36850483
486.934	6.39090519
487.134	6.41378824
487.334	6.4336675
487.533	6.45537841
487.733	6.47703893
487.933	6.50026519
488.133	6.52550783
488.332	6.54705707
488.532	6.57074494
488.732	6.59242354
488.931	6.61649137
489.131	6.64079941
489.331	6.66509942
489.53	6.68933982
489.73	6.70900699
489.93	6.73354999
490.129	6.7577971
490.329	6.78274018
490.528	6.80531233
490.728	6.83012395
490.928	6.85457229
491.127	6.87867982
491.327	6.90213118
491.526	6.9280157
491.726	6.95392371
491.925	6.97988362
492.125	7.00596527
492.324	7.0308859
492.524	7.05603937
492.723	7.08030172
492.922	7.10474082
493.122	7.13003753
493.321	7.15500168
493.521	7.18003766
493.72	7.20583347
493.919	7.23261153
494.119	7.26080387
494.318	7.28697159
494.517	7.3134993
494.717	7.34076491
494.916	7.36670805
495.115	7.39342757
495.315	7.42070349
495.514	7.44765958
495.713	7.47351591
495.912	7.49857013
496.112	7.52582455
496.311	7.55116785
496.51	7.5786418
496.709	7.60609517
496.908	7.63185893
497.108	7.66055105
497.307	7.68822263
497.506	7.71525073
497.705	7.74232004
497.904	7.7695061
498.103	7.79812803
498.302	7.82369029
498.501	7.84922159
498.701	7.87484554
498.9	7.90009625
499.099	7.92779247
499.298	7.95300429
499.497	7.97738131
499.696	8.00197035
499.895	8.02583777
500.094	8.05129386
500.293	8.07421223
500.492	8.09948197
500.691	8.12170227
500.89	8.14556171
501.088	8.17133069
501.287	8.19416064
501.486	8.21751806
501.685	8.24083343
501.884	8.26303874
502.083	8.28670354
502.282	8.30772635
502.481	8.32867771
502.679	8.35094235
502.878	8.37092269
503.077	8.39200724
503.276	8.40996635
503.475	8.43008039
503.673	8.45055647
503.872	8.47058239
504.071	8.4923731
504.27	8.50995068
504.468	8.52822444
504.667	8.54769268
504.866	8.56482916
505.064	8.58260803
505.263	8.59979324
505.462	8.61693378
505.66	8.63377706
505.859	8.64897246
506.058	8.66581975
506.256	8.68165115
506.455	8.69598777
506.653	8.71228786
506.852	8.72749363
507.05	8.74327352
507.249	8.759012
507.448	8.77518154
507.646	8.78999387
507.845	8.80488274
508.043	8.81779169
508.242	8.82888799
508.44	8.84439726
508.638	8.85908521
508.837	8.87147117
509.035	8.88615042
509.234	8.89831494
509.432	8.91002561
509.631	8.92255077
509.829	8.93591434
510.027	8.94869517
510.226	8.96123636
510.424	8.97177346
510.622	8.98560446
510.821	8.99553256
511.019	9.00634726
511.217	9.01960948
511.415	9.03152634
511.614	9.04441136
511.812	9.05626128
512.01	9.07023932
512.208	9.08446591
512.407	9.10089636
512.605	9.11354329
512.803	9.12785373
513.001	9.1418355
513.199	9.15438829
513.398	9.16738608
513.596	9.18134745
513.794	9.19748945
513.992	9.20934297
514.19	9.2243767
514.388	9.23945448
514.586	9.25516448
514.784	9.27016209
514.982	9.2869108
515.18	9.30217411
515.378	9.31732375
515.576	9.33316424
515.774	9.34730546
515.972	9.36388796
516.17	9.37769789
516.368	9.39487455
516.566	9.40946207
516.764	9.4252316
516.962	9.44015418
517.16	9.45567306
517.358	9.4735033
517.556	9.49183724
517.754	9.50977875
517.952	9.52577337
518.149	9.54330717
518.347	9.56260892
518.545	9.58009556
518.743	9.59920748
518.941	9.61940674
519.138	9.63949589
519.336	9.66054108
519.534	9.67961418
519.732	9.70036865
519.929	9.72092572
520.127	9.74204415
520.325	9.76485911
520.523	9.78444629
520.72	9.80709724
520.918	9.83030691
521.116	9.85309839
521.313	9.87798123
521.511	9.90150509
521.709	9.9261053
521.906	9.95172978
522.104	9.97639246
522.301	10.00323639
522.499	10.02776431
522.696	10.05301685
522.894	10.08072408
523.092	10.1052779
523.289	10.13080882
523.487	10.15704456
523.684	10.18455101
523.882	10.21168074
524.079	10.24035134
524.276	10.26943234
524.474	10.29886656
524.671	10.33067478
524.869	10.36235507
525.066	10.39367293
525.264	10.42846753
525.461	10.45930873
525.658	10.49245692
525.856	10.52550859
526.053	10.55878068
526.25	10.59296233
526.448	10.62859781
526.645	10.66287131
526.842	10.69937679
527.039	10.73525498
527.237	10.77437967
527.434	10.81286489
527.631	10.85373738
527.828	10.89497576
528.026	10.93497027
528.223	10.97578824
528.42	11.01680879
528.617	11.05888799
528.814	11.10095398
529.012	11.14232538
529.209	11.1868664
529.406	11.23100203
529.603	11.27720395
529.8	11.32316977
529.997	11.36951728
530.194	11.41616716
530.391	11.46427109
530.588	11.51199627
530.785	11.56179626
530.982	11.61142364
531.179	11.66166193
531.376	11.71215179
531.573	11.76544343
531.77	11.81676852
531.967	11.86772707
532.164	11.92235441
532.361	11.97762659
532.558	12.0328298
532.755	12.0867997
532.952	12.14155184
533.149	12.20011271
533.346	12.2566788
533.543	12.31426423
533.739	12.37249997
533.936	12.43212469
534.133	12.49427697
534.33	12.55755102
534.527	12.61941034
534.723	12.6829054
534.92	12.74804425
535.117	12.81464416
535.314	12.87968941
535.51	12.94660956
535.707	13.01069345
535.904	13.0795281
536.1	13.15193242
536.297	13.22152013
536.494	13.29269953
536.69	13.36435627
536.887	13.43830086
537.084	13.51218651
537.28	13.58507216
537.477	13.65947032
537.674	13.73294559
537.87	13.80941913
538.067	13.88655586
538.263	13.96463776
538.46	14.04176511
538.656	14.1204839
538.853	14.20060514
539.049	14.27991085
539.246	14.35936622
539.442	14.44074975
539.639	14.52228664
539.835	14.60781614
540.032	14.69211829
540.228	14.77541734
540.424	14.85854731
540.621	14.94337933
540.817	15.02947542
541.014	15.11491821
541.21	15.20275824
541.406	15.29045615
541.603	15.37865863
541.799	15.46800406
541.995	15.55653097
542.191	15.64493426
542.388	15.73160394
542.584	15.82225941
542.78	15.91448058
542.976	16.0049077
543.173	16.09742522
543.369	16.18865282
543.565	16.27994666
543.761	16.37411551
543.957	16.46556726
544.154	16.55718095
544.35	16.65167765
544.546	16.74647024
544.742	16.84157752
544.938	16.93334132
545.134	17.02796376
545.33	17.12034953
545.526	17.214116
545.722	17.31165208
545.919	17.40669996
546.115	17.50195663
546.311	17.59600737
546.507	17.69053378
546.703	17.78287777
546.899	17.87526751
547.095	17.96871
547.29	18.06257785
547.486	18.15903777
547.682	18.25291671
547.878	18.3433323
548.074	18.43641439
548.27	18.53102616
548.466	18.62411902
548.662	18.71680228
548.858	18.81037799
549.053	18.90450996
549.249	18.99569759
549.445	19.09046929
549.641	19.18364277
549.837	19.27281522
550.032	19.36221413
550.228	19.45385332
550.424	19.5511576
550.62	19.64446474
550.815	19.73798522
551.011	19.82976838
551.207	19.91747854
551.402	20.00674278
551.598	20.096688
551.794	20.18828254
551.989	20.28017673
552.185	20.37304609
552.381	20.46167429
552.576	20.55030577
552.772	20.64139542
552.967	20.72956142
553.163	20.81909395
553.359	20.91006618
553.554	20.99653924
553.75	21.08337432
553.945	21.17230743
554.141	21.26200024
554.336	21.35264776
554.532	21.43638814
554.727	21.52318258
554.922	21.61105767
555.118	21.69871194
555.313	21.78710973
555.509	21.8736238
555.704	21.95849326
555.899	22.04314021
556.095	22.12952223
556.29	22.21170104
556.486	22.29517885
556.681	22.37937942
556.876	22.462257
557.071	22.54229257
557.267	22.62531773
557.462	22.70493223
557.657	22.78717581
557.853	22.86782469
558.048	22.94870946
558.243	23.02805959
558.438	23.10398974
558.633	23.18470266
558.829	23.26497436
559.024	23.34179499
559.219	23.42100438
559.414	23.50180937
559.609	23.57996062
559.804	23.65915256
559.999	23.73378052
560.194	23.81189514
560.39	23.88699224
560.585	23.96398155
560.78	24.0411255
560.975	24.11608988
561.17	24.19585986
561.365	24.27172884
561.56	24.34729057
561.755	24.42507387
561.95	24.50411577
562.145	24.5762214
562.34	24.65320462
562.535	24.73055243
562.729	24.80522297
562.924	24.8773919
563.119	24.95321485
563.314	25.02758114
563.509	25.09955696
563.704	25.17501436
563.899	25.24969537
564.093	25.32694565
564.288	25.39871971
564.483	25.47504737
564.678	25.54891165
564.873	25.6230579
565.067	25.69945743
565.262	25.77245979
565.457	25.84704253
565.652	25.92576032
565.846	25.99944696
566.041	26.07253094
566.236	26.14932909
566.43	26.22396942
566.625	26.30028519
566.82	26.37449853
567.014	26.45362387
567.209	26.53249011
567.404	26.61091821
567.598	26.69275956
567.793	26.77549038
567.987	26.85419596
568.182	26.93523526
568.376	27.02063842
568.571	27.10238286
568.765	27.18655466
568.96	27.26990262
569.154	27.35558801
569.349	27.44539677
569.543	27.53264297
569.738	27.6200529
569.932	27.71242795
570.127	27.8034274
570.321	27.8981013
570.515	27.99321151
570.71	28.08943328
570.904	28.19208718
571.098	28.29124089
571.293	28.39297709
571.487	28.49644319
571.681	28.60272784
571.876	28.71035851
572.07	28.82302651
572.264	28.93655176
572.458	29.05355225
572.653	29.17314611
572.847	29.29662371
573.041	29.42082197
573.235	29.54579981
573.43	29.6712364
573.624	29.80638316
573.818	29.94310188
574.012	30.08088264
574.206	30.22599237
574.4	30.37460096
574.594	30.52516558
574.788	30.68219072
574.983	30.83732706
575.177	30.99558655
575.371	31.161302
575.565	31.33084775
575.759	31.50177629
575.953	31.67714274
576.147	31.85341268
576.341	32.03054055
576.535	32.21544185
576.729	32.40304828
576.923	32.59208807
577.117	32.79000308
577.31	32.98916225
577.504	33.19011326
577.698	33.39408406
577.892	33.59817574
578.086	33.80780381
578.28	34.01553665
578.474	34.22840709
578.668	34.44844529
578.861	34.6656664
579.055	34.88565523
579.249	35.106978
579.443	35.33074807
579.636	35.55360743
579.83	35.77596881
580.024	36.00045298
580.218	36.22873151
580.411	36.46022928
580.605	36.68864437
580.799	36.91813668
580.992	37.14967981
581.186	37.37992597
581.38	37.61540023
581.573	37.84981154
581.767	38.08304626
581.961	38.31852206
582.154	38.55996676
582.348	38.80043484
582.541	39.04173813
582.735	39.27555778
582.928	39.51124351
583.122	39.74873221
583.315	39.98679203
583.509	40.22354895
583.702	40.46262727
583.896	40.70100156
584.089	40.9365362
584.283	41.17308989
584.476	41.40584108
584.67	41.63728199
584.863	41.87328658
585.056	42.10591849
585.25	42.3365651
585.443	42.55701607
585.636	42.77921066
585.83	43.00433246
586.023	43.2232966
586.216	43.4349233
586.41	43.65214215
586.603	43.8618224
586.796	44.07379641
586.989	44.28628731
587.183	44.49416512
587.376	44.69845493
587.569	44.89697614
587.762	45.09526082
587.955	45.29421475
588.149	45.48911889
588.342	45.67938149
588.535	45.86720602
588.728	46.05527314
588.921	46.23183615
589.114	46.40743642
589.307	46.58257566
589.5	46.75693269
589.693	46.93253454
589.886	47.10057408
590.08	47.26926964
590.273	47.43061252
590.466	47.58652082
590.659	47.74230086
590.852	47.89430526
591.044	48.03835339
591.237	48.18148924
591.43	48.32271627
591.623	48.46034064
591.816	48.58940856
592.009	48.71661963
592.202	48.84154591
592.395	48.96028308
592.588	49.07628241
592.781	49.18745871
592.973	49.30071756
593.166	49.41414264
593.359	49.52113834
593.552	49.62275948
593.745	49.72141872
593.937	49.81885754
594.13	49.90522338
594.323	49.99612585
594.515	50.08446343
594.708	50.16541529
594.901	50.24531642
595.094	50.32644439
595.286	50.40439322
595.479	50.48000418
595.672	50.55466769
595.864	50.62692507
596.057	50.69218068
596.249	50.75739595
596.442	50.82447094
596.635	50.88901969
596.827	50.94732108
597.02	51.0102492
597.212	51.06097217
597.405	51.11380113
597.597	51.17003427
597.79	51.22080481
597.982	51.26968261
598.175	51.32129788
598.367	51.37236617
598.559	51.41925282
598.752	51.46231617
598.944	51.50602136
599.137	51.55030475
599.329	51.58847953
599.521	51.6251879
599.714	51.6601871
599.906	51.70174897
600.098	51.74171092
600.291	51.77835587
600.483	51.81983329
600.675	51.85903071
600.868	51.90064117
601.06	51.93277289
601.252	51.96958658
601.444	52.0028797
601.637	52.03685756
601.829	52.06193714
602.021	52.09496146
602.213	52.12589585
602.405	52.1560142
602.597	52.18617481
602.789	52.21502106
602.982	52.24231758
603.174	52.26956652
603.366	52.30061043
603.558	52.33212871
603.75	52.36115397
603.942	52.38533593
604.134	52.41098473
604.326	52.43539784
604.518	52.46015536
604.71	52.48793493
604.902	52.50420476
605.094	52.52659131
605.286	52.5537487
605.478	52.58334985
605.67	52.60278727
605.862	52.62958263
606.054	52.65288248
606.246	52.67515879
606.437	52.69452674
606.629	52.71391055
606.821	52.74158289
607.013	52.76021838
607.205	52.77988973
607.397	52.79821805
607.588	52.81258996
607.78	52.83604172
607.972	52.85167243
608.164	52.86741174
608.355	52.89233588
608.547	52.90715993
608.739	52.92079088
608.93	52.94552351
609.122	52.96234407
609.314	52.98297869
609.505	52.99306465
609.697	53.01317163
609.889	53.0335013
610.08	53.04751885
610.272	53.07016631
610.463	53.08313986
610.655	53.09984742
610.847	53.11438196
611.038	53.12875152
611.23	53.14405913
611.421	53.16013822
611.613	53.18511839
611.804	53.19805345
611.996	53.2199202
612.187	53.2336838
612.379	53.24148898
612.57	53.26090444
612.761	53.2792193
612.953	53.29442609
613.144	53.31243974
613.336	53.32303556
613.527	53.34102858
613.718	53.35755746
613.91	53.36978402
614.101	53.38547496
614.292	53.39547027
614.483	53.41210195
614.675	53.42974072
614.866	53.44376681
615.057	53.45996606
615.248	53.4724405
615.44	53.48750604
615.631	53.49789101
615.822	53.51001319
616.013	53.52160979
616.204	53.53851564
616.396	53.55360137
616.587	53.56638324
616.778	53.57665437
616.969	53.58296964
617.16	53.59107854
617.351	53.60739849
617.542	53.62255801
617.733	53.63845313
617.924	53.65264281
618.115	53.66239926
618.306	53.67533588
618.497	53.69529358
618.688	53.7014101
618.879	53.71142094
619.07	53.72742445
619.261	53.74859965
619.452	53.76071219
619.643	53.77183809
619.834	53.78779621
620.025	53.79551381
620.216	53.80912052
620.407	53.82411677
620.597	53.83579921
620.788	53.84909132
620.979	53.86692892
621.17	53.88783415
621.361	53.89509261
621.551	53.90223712
621.742	53.91147909
621.933	53.91948128
622.124	53.93435048
622.314	53.94108699
622.505	53.95304681
622.696	53.9721345
622.886	53.99170424
623.077	54.00726344
623.268	54.01053922
623.458	54.0223008
623.649	54.03437228
623.84	54.0430055
624.03	54.05532635
624.221	54.0741618
624.411	54.08565046
624.602	54.09557885
624.792	54.1090192
624.983	54.12579071
625.173	54.13315739
625.364	54.14963222
625.554	54.16633901
625.745	54.17456023
625.935	54.18575533
626.126	54.20115573
626.316	54.21643462
626.507	54.21775341
626.697	54.22835502
626.887	54.23914033
627.078	54.25163199
627.268	54.26471013
627.458	54.27734693
627.649	54.28917587
627.839	54.30413723
628.029	54.31593549
628.22	54.32089152
628.41	54.32804218
628.6	54.3348801
628.79	54.34563961
628.981	54.35168407
629.171	54.36430666
629.361	54.36923514
629.551	54.38333284
629.741	54.39123362
629.932	54.40636707
630.122	54.41255218
630.312	54.42621891
630.502	54.4416926
630.692	54.45115413
630.882	54.4596643
631.072	54.47005698
631.262	54.48506173
631.452	54.49811791
631.642	54.50709661
631.832	54.51844582
632.022	54.53028698
632.212	54.54097817
632.402	54.55845174
632.592	54.57766659
632.782	54.58860387
632.972	54.6019314
633.162	54.61196451
633.352	54.62240349
633.542	54.62619397
633.732	54.64319697
633.922	54.65431286
634.111	54.6684603
634.301	54.67862028
634.491	54.69362945
634.681	54.70516776
634.871	54.71280624
635.06	54.72220047
635.25	54.72567125
635.44	54.73290548
635.63	54.7423856
635.819	54.75640688
636.009	54.76859609
636.199	54.77757216
636.388	54.78116773
636.578	54.7864383
636.768	54.79931738
636.957	54.8068804
637.147	54.81679615
637.337	54.82519914
637.526	54.83830088
637.716	54.84881806
637.905	54.86186128
638.095	54.87613653
638.284	54.88322495
638.474	54.88697696
638.663	54.89975303
638.853	54.91354962
639.042	54.92485194
639.232	54.94293574
639.421	54.94809998
639.611	54.96210322
639.8	54.96693979
639.99	54.97864147
640.179	54.98708328
640.368	54.99419672
640.558	55.00474381
640.747	55.00887962
640.936	55.01708724
641.126	55.0243499
641.315	55.04092287
641.504	55.05004911
641.694	55.05775626
641.883	55.06283521
642.072	55.06262937
642.261	55.07217676
642.451	55.08844134
642.64	55.09452988
642.829	55.10099245
643.018	55.10564736
643.207	55.11074571
643.397	55.12382283
643.586	55.13260679
643.775	55.14196518
643.964	55.15075729
644.153	55.16176634
644.342	55.18072879
644.531	55.18637266
644.72	55.20222227
644.909	55.21677738
645.098	55.23204358
645.287	55.24080814
645.476	55.2509279
645.665	55.26028656
645.854	55.26437021
646.043	55.27620392
646.232	55.28349802
646.421	55.28950324
646.61	55.29954395
646.799	55.30962608
646.988	55.31979698
647.177	55.32905546
647.365	55.33720201
647.554	55.34995693
647.743	55.3578829
647.932	55.37563439
648.121	55.39062244
648.309	55.39983519
648.498	55.41938063
648.687	55.42294847
648.876	55.43075528
649.064	55.43052727
649.253	55.43761966
649.442	55.44661454
649.63	55.45399081
649.819	55.46321535
650.008	55.47206127
650.196	55.48946841
650.385	55.49396269
650.574	55.49835751
650.762	55.50075601
650.951	55.5121132
651.139	55.52276043
651.328	55.53225681
651.516	55.5430014
651.705	55.55333196
651.893	55.5546692
652.082	55.55840229
652.27	55.57114223
652.459	55.57981568
652.647	55.59427169
652.836	55.60287769
653.024	55.62117158
653.213	55.62957348
653.401	55.63238167
653.589	55.64085722
653.778	55.65284108
653.966	55.66535273
654.154	55.67388784
654.343	55.68302354
654.531	55.69350012
654.719	55.70943191
654.908	55.71587456
655.096	55.72509473
655.284	55.73336821
655.472	55.73942576
655.661	55.74918065
655.849	55.75208774
656.037	55.76219071
656.225	55.76629196
656.413	55.77286808
656.601	55.77258846
656.79	55.77953392
656.978	55.78410849
657.166	55.80197842
657.354	55.81642838
657.542	55.82155628
657.73	55.83682837
657.918	55.84072608
658.106	55.84598517
658.294	55.85564048
658.482	55.86615314
658.67	55.87165886
658.858	55.88116874
659.046	55.88565248
659.234	55.89677675
659.422	55.90585404
659.61	55.91054121
659.798	55.92915969
659.986	55.93497308
660.173	55.93794783
660.361	55.943209
660.549	55.95502208
660.737	55.96283219
660.925	55.96322218
661.113	55.96240522
661.3	55.96712803
661.488	55.98377159
661.676	55.9936742
661.864	56.00189936
662.051	56.0120292
662.239	56.02465173
662.427	56.03337825
662.614	56.0433021
662.802	56.04925017
662.99	56.05659984
663.177	56.0635768
663.365	56.06527241
663.553	56.0736343
663.74	56.07721457
663.928	56.08553718
664.115	56.08883721
664.303	56.09775257
664.49	56.09782948
664.678	56.10177946
664.866	56.126174
665.053	56.13013509
665.24	56.13655057
665.428	56.13670356
665.615	56.13765455
665.803	56.14289769
665.99	56.15474094
666.178	56.16125097
666.365	56.16605697
666.552	56.16873212
666.74	56.18256848
666.927	56.18971614
667.114	56.19431102
667.302	56.20256586
667.489	56.21140827
667.676	56.22036122
667.864	56.23291452
668.051	56.24862436
668.238	56.25232534
668.425	56.26485835
668.613	56.28142499
668.8	56.27860645
668.987	56.28988346
669.174	56.30147207
669.361	56.30875393
669.548	56.32008377
669.736	56.33585775
669.923	56.33257195
670.11	56.33440786
670.297	56.35083742
670.484	56.36494116
670.671	56.36735208
670.858	56.38073736
671.045	56.3900444
671.232	56.40223763
671.419	56.41316446
671.606	56.42023463
671.793	56.41613138
671.98	56.41733048
672.167	56.4243243
672.354	56.43575813
672.541	56.44554654
672.728	56.45084412
672.915	56.45415787
673.101	56.45404118
673.288	56.46331849
673.475	56.4716009
673.662	56.46951285
673.849	56.48435716
674.035	56.49123624
674.222	56.49489476
674.409	56.50118708
674.596	56.51661635
674.783	56.53238333
674.969	56.54513002
675.156	56.55345738
675.343	56.56574414
675.529	56.57286878
675.716	56.58849858
675.903	56.6041732
676.089	56.62522793
676.276	56.63136311
676.462	56.6390486
676.649	56.65429568
676.836	56.67202471
677.022	56.69112441
677.209	56.69854232
677.395	56.70192948
677.582	56.7212816
677.768	56.73661739
677.955	56.7519892
678.141	56.76331522
678.328	56.7746846
678.514	56.78101249
678.701	56.78801891
678.887	56.78711361
679.073	56.79231128
679.26	56.79976828
679.446	56.80627432
679.632	56.81610896
679.819	56.83624582
680.005	56.83502184
680.191	56.85064148
680.378	56.85347637
680.564	56.86661465
680.75	56.87305676
680.936	56.88291487
681.123	56.91076358
681.309	56.92811439
681.495	56.94384443
681.681	56.95388777
681.867	56.97045929
682.054	56.98517413
682.24	57.00350165
682.426	57.01390373
682.612	57.02569857
682.798	57.05441314
682.984	57.0781939
683.17	57.10269812
683.356	57.11875393
683.542	57.14397622
683.728	57.14953475
683.914	57.17174493
684.1	57.19585009
684.286	57.22631258
684.472	57.24923699
684.658	57.27401171
684.844	57.28583957
685.03	57.29655242
685.216	57.31047263
685.402	57.32540033
685.588	57.34154625
685.774	57.35771681
685.96	57.37768518
686.145	57.39756108
686.331	57.42010065
686.517	57.43539416
686.703	57.45044057
686.889	57.47148939
687.074	57.48129605
687.26	57.50902217
687.446	57.53090131
687.631	57.54466659
687.817	57.56403321
688.003	57.5773437
688.189	57.5969091
688.374	57.61284255
688.56	57.63470517
688.745	57.66542993
688.931	57.68679191
689.117	57.71479147
689.302	57.73203222
689.488	57.75046918
689.673	57.76298003
689.859	57.77782984
690.044	57.78899127
690.23	57.80743637
690.415	57.83118717
690.601	57.84772774
690.786	57.87055194
690.972	57.88089788
691.157	57.89578722
691.343	57.91184963
691.528	57.94244755
691.713	57.96413403
691.899	57.99033045
692.084	58.00363158
692.269	58.01764841
692.455	58.03611821
692.64	58.05503992
692.825	58.07826386
693.011	58.09966159
693.196	58.12780749
693.381	58.1557881
693.566	58.1885172
693.752	58.20071364
693.937	58.22944836
694.122	58.24900497
694.307	58.27591347
694.492	58.30385157
694.678	58.31510083
694.863	58.34182855
695.048	58.3719277
695.233	58.38890195
695.418	58.40283951
695.603	58.42241762
695.788	58.44056373
695.973	58.45496693
696.158	58.48555129
696.343	58.50454041
696.528	58.52982688
696.713	58.54217271
696.898	58.55799582
697.083	58.56664589
697.268	58.58392391
697.453	58.60779254
697.638	58.64084229
697.823	58.65703787
698.008	58.68059507
698.192	58.68935898
698.377	58.70465564
698.562	58.72991744
698.747	58.75556351
698.932	58.77215125
699.117	58.78948052
699.301	58.82158629
699.486	58.84041303
699.671	58.85605609
699.856	58.88615761
700.04	58.89693068
700.225	58.91860273
700.41	58.93323554
700.594	58.95795944
700.779	58.9804002
700.964	59.01860684
701.148	59.03738581
701.333	59.05941264
701.517	59.07477049
701.702	59.10150134
701.887	59.12222577
702.071	59.13883478
702.256	59.15895931
702.44	59.1703473
702.625	59.1970032
702.809	59.22049324
702.994	59.24753944
703.178	59.26654477
703.362	59.29249586
703.547	59.30993855
703.731	59.33633684
703.916	59.3648884
704.1	59.39235262
704.284	59.40817699
704.469	59.43214242
704.653	59.45028505
704.837	59.46008089
705.022	59.48739964
705.206	59.503517
705.39	59.52744494
705.575	59.54559746
705.759	59.56957006
705.943	59.60060116
706.127	59.62474919
706.311	59.65161903
706.496	59.66337765
706.68	59.68441792
706.864	59.69906554
707.048	59.7163669
707.232	59.7273289
707.416	59.7590484
707.6	59.76542471
707.785	59.7812826
707.969	59.7960579
708.153	59.82056173
708.337	59.84261268
708.521	59.8662442
708.705	59.89771206
708.889	59.91096477
709.073	59.93448961
709.257	59.95045105
709.441	59.96783848
709.624	59.98314352
709.808	60.00477207
709.992	60.02698364
710.176	60.04822094
710.36	60.06303733
710.544	60.07406028
710.728	60.09176064
710.912	60.1137062
711.095	60.14540523
711.279	60.16518951
711.463	60.19792144
711.647	60.21806519
711.83	60.2315664
712.014	60.26142962
712.198	60.28692625
712.382	60.31063153
712.565	60.32466668
712.749	60.34761366
712.933	60.34871603
713.116	60.37528978
713.3	60.40380191
713.483	60.42862109
713.667	60.45336304
713.851	60.46664087
714.034	60.48996448
714.218	60.51911197
714.401	60.54925878
714.585	60.57947293
714.768	60.59965141
714.952	60.61499511
715.135	60.63732884
715.319	60.65691227
715.502	60.67206859
715.686	60.69501934
715.869	60.71358009
716.052	60.71921829
716.236	60.744584
716.419	60.7548483
716.602	60.77271176
716.786	60.81442209
716.969	60.83750871
717.152	60.84618397
717.336	60.86867904
717.519	60.88122115
717.702	60.90114853
717.885	60.91802636
718.069	60.94594258
718.252	60.95841801
718.435	60.97022453
718.618	60.99355216
718.801	61.00988495
718.985	61.02359901
719.168	61.04166023
719.351	61.06788446
719.534	61.09625826
719.717	61.10987468
719.9	61.13692474
720.083	61.14240007
720.266	61.162831
720.449	61.19029786
720.632	61.2101549
720.815	61.22807273
720.998	61.25496168
721.181	61.27607519
721.364	61.29433261
721.547	61.31226613
721.73	61.32923161
721.913	61.33396798
722.096	61.35514151
722.279	61.3815418
722.461	61.39030009
722.644	61.41518544
722.827	61.4375854
723.01	61.44642773
723.193	61.45758248
723.376	61.46485682
723.558	61.48498416
723.741	61.4993887
723.924	61.52086975
724.107	61.53899874
724.289	61.54503879
724.472	61.54845699
724.655	61.56558557
724.837	61.57988511
725.02	61.57808679
725.203	61.59015801
725.385	61.61176524
725.568	61.61895354
725.75	61.63314433
725.933	61.65146358
726.115	61.65475016
726.298	61.67251359
726.481	61.67880085
726.663	61.68677224
726.845	61.69470163
727.028	61.71195226
727.21	61.72974315
727.393	61.74138558
727.575	61.74789755
727.758	61.76318697
727.94	61.77434254
728.122	61.78962766
728.305	61.81033492
728.487	61.81349045
728.67	61.82438534
728.852	61.83831666
729.034	61.85204948
729.216	61.85241782
729.399	61.87692996
729.581	61.89125653
729.763	61.8979407
729.945	61.91107676
730.128	61.92004514
730.31	61.93987749
730.492	61.9461612
730.674	61.96457282
730.856	61.98128634
731.039	61.99013141
731.221	61.9954335
731.403	62.0101538
731.585	62.02530676
731.767	62.03696441
731.949	62.04406347
732.131	62.0494046
732.313	62.06290167
732.495	62.07405704
732.677	62.09114945
732.859	62.09250741
733.041	62.11297628
733.223	62.11759281
733.405	62.1241308
733.587	62.1411106
733.769	62.16607783
733.951	62.17592777
734.132	62.17970201
734.314	62.1911942
734.496	62.19682655
734.678	62.19984373
734.86	62.20710724
735.042	62.2200271
735.223	62.23113819
735.405	62.22454891
735.587	62.22471278
735.769	62.23129737
735.95	62.24171942
736.132	62.24987666
736.314	62.25820799
736.495	62.26397765
736.677	62.28668297
736.859	62.29276676
737.04	62.2965781
737.222	62.30792273
737.403	62.30981674
737.585	62.3146176
737.767	62.32485183
737.948	62.33807564
738.13	62.34850896
738.311	62.35327684
738.493	62.3535593
738.674	62.36323268
738.856	62.36994204
739.037	62.36804113
739.219	62.37958628
739.4	62.39822209
739.581	62.4108084
739.763	62.42183434
739.944	62.42821972
740.125	62.4339936
740.307	62.45030857
740.488	62.45154957
740.669	62.4555356
740.851	62.46954825
741.032	62.48371235
741.213	62.49061421
741.395	62.48614317
741.576	62.49708051
741.757	62.50168093
741.938	62.50504461
742.119	62.5203382
742.301	62.54040636
742.482	62.55336747
742.663	62.5624348
742.844	62.57573813
743.025	62.59140323
743.206	62.59438909
743.387	62.60712347
743.568	62.61360154
743.749	62.62256688
743.93	62.63137447
744.111	62.63508251
744.292	62.63791875
744.473	62.65741953
744.654	62.6628
744.835	62.66704495
745.016	62.67673328
745.197	62.68808738
745.378	62.69951064
745.559	62.70621179
745.74	62.71689213
745.921	62.7325845
746.102	62.74732947
746.282	62.7434586
746.463	62.75264009
746.644	62.76652033
746.825	62.76787341
747.006	62.78382046
747.186	62.78460224
747.367	62.78486842
747.548	62.80311878
747.728	62.8099282
747.909	62.81950763
748.09	62.84148367
748.27	62.85072185
748.451	62.85508279
748.632	62.86359473
748.812	62.87024301
748.993	62.88489062
749.173	62.8880369
749.354	62.90821249
749.535	62.91141714
749.715	62.92455535
749.896	62.91681056
750.076	62.93431812
750.257	62.94270336
750.437	62.94600064
750.618	62.95577204
750.798	62.97108111
750.978	62.9849956
751.159	63.00002458
751.339	63.00399914
751.52	63.0123988
751.7	63.02127422
751.88	63.0249534
752.061	63.03386977
752.241	63.05267109
752.421	63.05653154
752.601	63.06634854
752.782	63.07959421
752.962	63.09669225
753.142	63.10154909
753.322	63.11696082
753.503	63.12277014
753.683	63.13543113
753.863	63.14628791
754.043	63.1607386
754.223	63.18021429
754.403	63.19402306
754.583	63.19348148
754.764	63.20037177
754.944	63.21585464
755.124	63.22827829
755.304	63.2488293
755.484	63.25559998
755.664	63.26380143
755.844	63.26785355
756.024	63.27678446
756.204	63.285596
756.384	63.30579515
756.564	63.30425945
756.743	63.32182883
756.923	63.32829785
757.103	63.34920295
757.283	63.34825336
757.463	63.36541813
757.643	63.3789421
757.823	63.39663674
758.002	63.41237047
758.182	63.4249915
758.362	63.44235817
758.542	63.44770754
758.721	63.45251981
758.901	63.46343011
759.081	63.47547648
759.261	63.49362011
759.44	63.50034096
759.62	63.50009964
759.8	63.51403413
759.979	63.53876304
760.159	63.5408073
760.338	63.55087162
760.518	63.53513328
760.698	63.54361901
760.877	63.55663427
761.057	63.57101929
761.236	63.57649815
761.416	63.57897395
761.595	63.58816659
761.775	63.58570577
761.954	63.59084697
762.133	63.59378064
762.313	63.60790368
762.492	63.6096039
762.672	63.60973777
762.851	63.60567204
763.03	63.61787049
763.21	63.63672757
763.389	63.65209395
763.568	63.65048047
763.748	63.64787539
763.927	63.66408434
764.106	63.66094942
764.286	63.67748068
764.465	63.69267777
764.644	63.68923018
764.823	63.69144939
765.002	63.69852935
765.182	63.71055656
765.361	63.70764449
765.54	63.72116219
765.719	63.73296377
765.898	63.73260884
766.077	63.7358363
766.256	63.74918999
766.435	63.75294556
766.614	63.76477532
766.793	63.76166768
766.972	63.75703251
767.151	63.75718148
767.33	63.76476813
767.509	63.76838575
767.688	63.7602056
767.867	63.7688927
768.046	63.76228738
768.225	63.76238325
768.404	63.77276019
768.583	63.78214584
768.762	63.78697058
768.94	63.79246508
769.119	63.79808691
769.298	63.79373779
769.477	63.78907128
769.656	63.80402405
769.834	63.81166244
770.013	63.816448
770.192	63.82258438
770.37	63.82772162
770.549	63.83130354
770.728	63.8426162
770.906	63.84337142
771.085	63.84412681
771.264	63.85168204
771.442	63.8630998
771.621	63.88064105
771.799	63.89058108
771.978	63.89537241
772.157	63.89521037
772.335	63.88975929
772.514	63.90244972
772.692	63.90040349
772.871	63.90335387
773.049	63.91556134
773.228	63.93133341
773.406	63.93808264
773.584	63.94629198
773.763	63.9489697
773.941	63.95710805
774.119	63.9615787
774.298	63.97158049
774.476	63.97925321
774.655	63.98548274
774.833	63.99458467
775.011	63.98728695
775.189	63.99872065
775.368	64.00270657
775.546	64.01091881
775.724	64.00727447
775.902	64.01752934
776.08	64.03610657
776.259	64.03461663
776.437	64.044351
776.615	64.04669267
776.793	64.03738608
776.971	64.03858654
777.149	64.02890812
777.327	64.04076817
777.505	64.04991653
777.683	64.04871372
777.861	64.04454661
778.04	64.05371403
778.218	64.05259712
778.395	64.06865335
778.573	64.08071583
778.751	64.09738517
778.929	64.10137855
779.107	64.10338297
779.285	64.11186263
779.463	64.11763333
779.641	64.1129474
779.819	64.10708393
779.997	64.11466868
780.174	64.13414259
780.352	64.14106791
780.53	64.15403169
780.708	64.15853933
780.886	64.17232223
781.063	64.16530598
781.241	64.16825304
781.419	64.17261594
781.596	64.18640073
781.774	64.18423552
781.952	64.1822623
782.129	64.18192549
782.307	64.18187675
782.485	64.18990173
782.662	64.18746973
782.84	64.17682525
783.017	64.18021463
783.195	64.18622194
783.372	64.20190658
783.55	64.21686409
783.727	64.21872187
783.905	64.20445267
784.082	64.21973295
784.26	64.2348317
784.437	64.24416616
784.615	64.24486092
784.792	64.24811464
784.969	64.2516761
785.147	64.27232779
785.324	64.27815172
785.501	64.29297568
785.679	64.31042799
785.856	64.31499095
786.033	64.32491365
786.211	64.33787298
786.388	64.3514911
786.565	64.37770384
786.742	64.36577906
786.92	64.38362731
787.097	64.3867249
787.274	64.39047715
787.451	64.40272281
787.628	64.41246814
787.805	64.41979346
787.982	64.41151234
788.16	64.40135866
788.337	64.41316554
788.514	64.42730025
788.691	64.42369461
788.868	64.42097266
789.045	64.41867266
789.222	64.40900714
789.399	64.40136813
789.576	64.40432073
789.753	64.41503763
789.93	64.41216197
790.106	64.4050552
790.283	64.39849901
790.46	64.41820348
790.637	64.39896366
790.814	64.4050563
790.991	64.40084783
791.168	64.40195931
791.344	64.41810275
791.521	64.42138212
791.698	64.44338858
791.875	64.46418568
792.051	64.46110419
792.228	64.45738641
792.405	64.4710489
792.581	64.48267168
792.758	64.49213706
792.935	64.50008599
793.111	64.51055421
793.288	64.52392093
793.465	64.51345333
793.641	64.51867524
793.818	64.53557402
793.994	64.53877039
794.171	64.53975886
794.347	64.55265645
794.524	64.55322649
794.7	64.56523359
794.877	64.56799266
795.053	64.54792361
795.23	64.53733382
795.406	64.52631253
795.583	64.52801531
795.759	64.53139014
795.935	64.53523931
796.112	64.54250846
796.288	64.53249734
796.464	64.54070265
796.641	64.53931441
796.817	64.54711268
796.993	64.54508899
797.169	64.54690441
797.346	64.54592038
797.522	64.54456198
797.698	64.54539164
797.874	64.54394948
798.051	64.54747295
798.227	64.54976094
798.403	64.55240076
798.579	64.54201949
798.755	64.55986214
798.931	64.57276047
799.107	64.58370904
799.283	64.58317303
799.459	64.59435125
799.635	64.59857814
799.811	64.59748867
799.987	64.60714851
800.163	64.60318276
800.339	64.60053184
800.515	64.60368366
800.691	64.60855685
800.867	64.62211832
801.043	64.62278219
801.219	64.61932995
801.395	64.64180225
801.571	64.65633217
801.746	64.66566501
801.922	64.66709328
802.098	64.67481383
802.274	64.69007022
802.45	64.68308177
802.625	64.68158206
802.801	64.67976685
802.977	64.66964329
803.152	64.67290746
803.328	64.69020366
803.504	64.69404062
803.679	64.70180365
803.855	64.67687504
804.031	64.68955298
804.206	64.69235274
804.382	64.70896181
804.557	64.70836028
804.733	64.71373949
804.909	64.72068534
805.084	64.6928944
805.26	64.68483675
805.435	64.69478295
805.61	64.69501843
805.786	64.6869026
805.961	64.68267132
806.137	64.69596901
806.312	64.69652525
806.488	64.69313224
806.663	64.70239877
806.838	64.70144879
807.014	64.67432689
807.189	64.66220201
807.364	64.64331903
807.54	64.67536198
807.715	64.67311993
807.89	64.64820806
808.065	64.62721222
808.241	64.60653336
808.416	64.59974117
808.591	64.60536025
808.766	64.63767571
808.941	64.64338097
809.116	64.64456733
809.291	64.63585497
809.467	64.63264333
809.642	64.64093933
809.817	64.62715624
809.992	64.64365112
810.167	64.64618375
810.342	64.64106588
810.517	64.64309304
810.692	64.68091209
810.867	64.71338359
811.042	64.71481392
811.217	64.70942512
811.392	64.72276557
811.567	64.75698587
811.741	64.75152711
811.916	64.76857224
812.091	64.79547423
812.266	64.79892299
812.441	64.77780546
812.616	64.77860537
812.79	64.7705791
812.965	64.79423779
813.14	64.80450117
813.315	64.79956678
813.489	64.78442081
813.664	64.79234831
813.839	64.80153772
814.013	64.81399614
814.188	64.80141913
814.363	64.76472915
814.537	64.74892387
814.712	64.76655539
814.887	64.78975901
815.061	64.79307922
815.236	64.78774952
815.41	64.79742476
815.585	64.7972425
815.759	64.7902765
815.934	64.79713961
816.108	64.81192774
816.283	64.82000153
816.457	64.81665704
816.631	64.83220457
816.806	64.81019746
816.98	64.8197576
817.155	64.83531387
817.329	64.78725661
817.503	64.77599607
817.678	64.80684455
817.852	64.86310866
818.026	64.87983098
818.201	64.88259796
818.375	64.8884574
818.549	64.89121316
818.723	64.89616113
818.897	64.88090141
819.072	64.88647711
819.246	64.88554467
819.42	64.89841551
819.594	64.85729208
819.768	64.87332914
819.942	64.86175353
820.116	64.85249612
820.29	64.83589613
820.465	64.85880927
820.639	64.85972088
820.813	64.85614308
820.987	64.88879303
821.161	64.92434066
821.335	64.8993115
821.509	64.86098388
821.682	64.88938909
821.856	64.88800722
822.03	64.87280058
822.204	64.85969241
822.378	64.85545474
822.552	64.88065022
822.726	64.89726467
822.9	64.92359094
823.073	64.917789
823.247	64.93558633
823.421	64.9354826
823.595	64.96478889
823.768	64.99500172
823.942	64.99317514
824.116	64.99371834
824.289	64.99895148
824.463	65.05646858
824.637	65.0487257
824.81	65.02883672
824.984	65.05275184
825.158	65.04169018
825.331	64.99283333
825.505	64.99434953
825.678	65.01077909
825.852	65.00233751
826.025	64.98793125
826.199	64.98937799
826.372	64.98081244
826.546	64.97883827
826.719	64.95898903
826.893	64.97589572
827.066	64.96955104
827.24	64.96966411
827.413	64.98225428
827.586	64.98900251
827.76	64.99227671
827.933	65.02452623
828.106	65.00168281
828.28	65.00877659
828.453	65.02875244
828.626	64.99717835
828.799	65.05331424
828.973	65.09055547
829.146	65.0940842
829.319	65.11342212
829.492	65.12951239
829.665	65.13423797
829.839	65.1440652
830.012	65.13259889
830.185	65.13568285
830.358	65.15819358
830.531	65.17581843
830.704	65.16275282
830.877	65.15500266
831.05	65.13393623
831.223	65.13615996
831.396	65.12913004
831.569	65.11649178
831.742	65.07591949
831.915	65.10458561
832.088	65.08745318
832.261	65.1183759
832.434	65.08806253
832.607	65.08924584
832.779	65.1127691
832.952	65.11439461
833.125	65.10410537
833.298	65.14283013
833.471	65.16184463
833.643	65.17295285
833.816	65.16209088
833.989	65.17911921
834.162	65.16524383
834.334	65.1766378
834.507	65.19291446
834.68	65.20208698
834.852	65.20165104
835.025	65.16647308
835.198	65.19503396
835.37	65.23142958
835.543	65.23148677
835.715	65.23589128
835.888	65.22545536
836.061	65.20718098
836.233	65.17697064
836.406	65.14453414
836.578	65.13420082
836.751	65.12765364
836.923	65.09631607
837.095	65.05394273
837.268	65.05423461
837.44	65.05833248
837.613	65.04731555
837.785	65.07554157
837.957	65.08122805
838.13	65.05149878
838.302	65.04329686
838.474	65.06210853
838.647	65.11829779
838.819	65.09385666
838.991	65.06551189
839.163	65.05566818
839.336	65.04312391
839.508	65.06882946
839.68	65.07545491
839.852	65.08746453
840.024	65.08450013
840.196	65.05203821
840.368	65.13661126
840.541	65.16068489
840.713	65.1656553
840.885	65.20983133
841.057	65.2350505
841.229	65.25603774
841.401	65.22102552
841.573	65.22685346
841.745	65.23743137
841.917	65.20746051
842.089	65.1685031
842.261	65.13606454
842.432	65.13522392
842.604	65.18645971
842.776	65.18232713
842.948	65.20697412
843.12	65.13790242
843.292	65.14531742
843.464	65.17587398
843.635	65.21896847
843.807	65.23938603
843.979	65.1968822
844.151	65.12976888
844.322	65.15045317
844.494	65.108838
844.666	65.07009019
844.837	65.04040314
845.009	65.05747252
845.181	65.02535351
845.352	65.00507907
845.524	65.02224152
845.695	65.07983071
845.867	65.1005952
846.039	65.03744578
846.21	64.9823878
846.382	64.97139005
846.553	64.99829095
846.725	65.06739237
846.896	65.06370565
847.068	65.10388471
847.239	65.1258676
847.41	65.14016638
847.582	65.12201372
847.753	65.17373917
847.925	65.2259581
848.096	65.26647888
848.267	65.28556265
848.439	65.31011647
848.61	65.29141331
848.781	65.326286
848.952	65.36558705
849.124	65.39776939
849.295	65.35503818
849.466	65.39294428
849.637	65.46192105
849.808	65.52702006
849.98	65.49857419
850.151	65.40927134
850.322	65.39482733
850.493	65.40690702
850.664	65.33011517
850.835	65.35167835
851.006	65.38575586
851.177	65.37924369
851.348	65.42637183
851.519	65.33522507
851.69	65.30821122
851.861	65.33555351
852.032	65.27978706
852.203	65.2372867
852.374	65.20304905
852.545	65.2153945
852.716	65.20789655
852.887	65.21005876
853.057	65.15391669
853.228	65.10511448
853.399	65.07617061
853.57	65.15120359
853.741	65.15432886
853.911	65.16490858
854.082	65.1624486
854.253	65.15450795
854.424	65.03857493
854.594	64.99181166
854.765	65.02709593
854.936	64.94038809
855.106	64.97257393
855.277	65.01559477
855.447	64.99994964
855.618	65.02924342
855.789	65.06277135
855.959	65.09935243
856.13	65.08276298
856.3	65.06157983
856.471	65.02051275
856.641	65.07173065
856.812	65.06783192
856.982	65.02758842
857.153	65.00347106
857.323	65.04925458
857.493	65.00832853
857.664	65.02325234
857.834	65.05405284
858.004	65.07269675
858.175	65.14663277
858.345	65.06146515
858.515	65.06529518
858.686	65.04785084
858.856	65.05494353
859.026	65.03457873
859.196	65.04405067
859.367	65.08290496
859.537	65.09454619
859.707	65.10390256
859.877	65.12139377
860.047	65.17320511
860.217	65.04519278
860.387	65.03975741
860.558	65.1357365
860.728	65.04192183
860.898	65.05869643
861.068	65.04053259
861.238	64.99640015
861.408	64.85086989
861.578	64.792362
861.748	64.69297563
861.918	64.75846421
862.088	64.76765086
862.257	64.78815535
862.427	64.59064948
862.597	64.56628114
862.767	64.54156528
862.937	64.47719965
863.107	64.49084715
863.277	64.37825047
863.446	64.39489587
863.616	64.36077621
863.786	64.48403122
863.956	64.50412621
864.125	64.42956109
864.295	64.43105378
864.465	64.40025338
864.634	64.43927933
864.804	64.43090742
864.974	64.44431893
865.143	64.51203233
865.313	64.49389745
865.482	64.41355406
865.652	64.41333543
865.822	64.36967116
865.991	64.47721191
866.161	64.51852314
866.33	64.50694592
866.5	64.57788827
866.669	64.55475021
866.838	64.58920229
867.008	64.57032593
867.177	64.50897104
867.347	64.48249253
867.516	64.41717093
867.685	64.39591981
867.855	64.31793075
868.024	64.29895259
868.193	64.27586911
868.363	64.2604012
868.532	64.30561054
868.701	64.25604219
868.87	64.22149439
869.04	64.21494659
869.209	64.15306114
869.378	64.22421453
869.547	64.12113726
869.716	64.07604766
869.885	64.11506403
870.055	63.97040019
870.224	63.95608156
870.393	63.94985985
870.562	63.94667743
870.731	63.91643354
870.9	63.82654805
871.069	63.891059
871.238	63.78866774
871.407	63.93551932
871.576	64.03132812
871.745	64.05395312
871.914	64.00781897
872.083	64.11544127
872.251	64.18688147
872.42	64.1974261
872.589	64.19551083
872.758	64.23860116
872.927	64.21367316
873.096	64.1673808
873.264	64.21060456
873.433	64.08071574
873.602	64.09304535
873.771	64.10106103
873.939	64.10137038
874.108	63.96896667
874.277	64.02047561
874.445	64.07624579
874.614	64.07102461
874.783	64.14768993
874.951	64.12249856
875.12	63.94210424
875.288	63.81453326
875.457	63.8434063
875.625	63.73245668
875.794	63.74044248
875.962	63.71471223
876.131	63.81396801
876.299	63.6782343
876.468	63.53465865
876.636	63.69273751
876.805	63.49853763
876.973	63.56642139
877.141	63.55535965
877.31	63.47100561
877.478	63.56528183
877.647	63.63342233
877.815	63.61564575
877.983	63.52968467
878.151	63.42165981
878.32	63.47596271
878.488	63.26066648
878.656	63.34730221
878.824	63.43547984
878.992	63.48464889
879.161	63.55118934
879.329	63.39793863
879.497	63.28452812
879.665	63.108735
879.833	63.23379584
880.001	63.2689849
880.169	63.10978797
880.337	63.14752953
880.505	63.17367437
880.673	63.1286545
880.841	63.06851907
881.009	62.94245078
881.177	62.95769347
881.345	62.98955504
881.513	63.05141015
881.681	63.0270752
881.849	63.01488932
882.017	63.34247132
882.185	63.18393755
882.352	63.03667018
882.52	62.77256597
882.688	62.64165182
882.856	62.77082888
883.024	62.89212823
883.191	63.15538283
883.359	63.04227344
883.527	63.08469184
883.694	63.15846798
883.862	63.13797901
884.03	63.10187674
884.197	63.16859589
884.365	63.2067518
884.533	63.16431412
884.7	63.01586825
884.868	62.93550245
885.035	62.72527918
885.203	62.54834671
885.37	62.4287442
885.538	62.18407626
885.705	62.21858381
885.873	62.31850421
886.04	62.48840335
886.208	62.53659281
886.375	62.3628109
886.542	62.30404379
886.71	61.85907206
886.877	61.94847072
