Data from pano_Reflection_00003.txt Node
Date: Thu Apr 11 13:46:44 AEST 2024
User: uqkchene_local
Spectrometer: USB4E02642
Trigger mode: 4
Integration Time (sec): 2.541000E-2
Scans to average: 101
Electric dark correction enabled: true
Nonlinearity correction enabled: false
Boxcar width: 10
XAxis mode: Wavelengths
Number of Pixels in Spectrum: 3648
>>>>>Begin Spectral Data<<<<<
179.217	125.59322034
179.432	123.41137124
179.647	128.17629179
179.862	84.35
180.077	89.66780655
180.293	49.25053533
180.508	30.27444254
180.723	37.83649053
180.938	21.16415002
181.153	16.14114114
181.368	18.48064052
181.583	16.54325311
181.798	15.49478612
182.013	14.2572873
182.228	18.49336456
182.443	19.0150195
182.658	19.11013425
182.873	18.33647393
183.088	18.3071573
183.303	17.39529659
183.518	17.44731447
183.733	16.17439905
183.948	14.46503331
184.162	15.10169833
184.377	15.05188553
184.592	14.77807323
184.807	15.92970192
185.022	16.50812437
185.237	17.00161232
185.452	16.71802136
185.667	16.9976822
185.882	16.24369948
186.096	17.36253953
186.311	17.1268326
186.526	16.87593332
186.741	16.54497111
186.956	16.37836733
187.17	15.48048219
187.385	16.54093884
187.6	16.27562654
187.815	16.34101836
188.03	16.0951503
188.244	16.8309752
188.459	16.85739213
188.674	16.4956034
188.889	17.26899259
189.103	16.76203282
189.318	16.21768369
189.533	15.98027066
189.747	15.17334601
189.962	15.48384213
190.177	14.96984799
190.391	16.04594345
190.606	14.65377039
190.821	14.25516426
191.035	13.57166993
191.25	12.33901312
191.465	10.96938514
191.679	11.80118878
191.894	11.22324097
192.109	10.92274787
192.323	10.49699999
192.538	9.37496824
192.752	8.98717222
192.967	9.85560382
193.181	9.03867756
193.396	8.68002502
193.611	9.98660001
193.825	9.93181559
194.04	10.05216257
194.254	11.25738458
194.469	10.96532576
194.683	11.82456576
194.898	11.26223143
195.112	10.3101559
195.327	11.1409334
195.541	11.77894705
195.756	12.23575779
195.97	14.94594183
196.184	15.36829849
196.399	15.14508602
196.613	15.26647547
196.828	15.74409001
197.042	16.70072121
197.257	16.58642514
197.471	15.76777131
197.685	16.49587161
197.9	16.60701829
198.114	16.0981693
198.328	16.07043606
198.543	15.88475734
198.757	14.77481408
198.971	15.69180568
199.186	15.56582518
199.4	15.55728722
199.614	16.1559986
199.829	15.40562209
200.043	15.00468511
200.257	14.70646402
200.471	13.32333091
200.686	13.29849244
200.9	13.17946996
201.114	13.51625518
201.328	13.85403018
201.543	14.07031964
201.757	14.39512748
201.971	13.76858467
202.185	13.29874439
202.399	11.974659
202.614	11.42510763
202.828	11.32039066
203.042	11.9044844
203.256	11.87386123
203.47	10.49452202
203.684	10.08061
203.899	9.78852994
204.113	9.82630443
204.327	9.9201841
204.541	11.15210407
204.755	12.71178117
204.969	12.67414352
205.183	12.34761
205.397	11.53019662
205.611	11.68914991
205.825	11.50706622
206.039	10.36185971
206.253	10.12718785
206.467	9.90549241
206.681	10.32144122
206.895	11.78967191
207.109	11.93967578
207.323	12.86750757
207.537	12.33769876
207.751	12.8446341
207.965	13.40947116
208.179	12.5500976
208.393	12.29605734
208.607	12.2775271
208.821	12.42777783
209.035	12.44690359
209.249	11.6489221
209.463	12.10831915
209.677	12.0547858
209.891	12.91565977
210.104	12.1416441
210.318	11.85130943
210.532	12.19224192
210.746	12.50079076
210.96	13.64901626
211.174	13.09259074
211.387	13.0514756
211.601	13.13308916
211.815	12.35440661
212.029	11.91739044
212.243	11.24237624
212.456	10.7640919
212.67	11.93429797
212.884	12.18247478
213.098	12.21016373
213.311	11.82240651
213.525	11.00089534
213.739	12.05664112
213.953	12.55849064
214.166	12.52590321
214.38	11.72016391
214.594	13.22912856
214.807	12.88626801
215.021	12.83016897
215.235	11.82850116
215.448	10.84344746
215.662	11.15583642
215.876	10.45681386
216.089	10.42538652
216.303	10.20295776
216.516	10.17761138
216.73	10.12250783
216.944	10.83340173
217.157	10.70509966
217.371	11.04331937
217.584	11.33962688
217.798	11.58242236
218.011	12.03976269
218.225	10.35955385
218.439	9.13906125
218.652	9.12302903
218.866	9.60552268
219.079	8.43739438
219.293	8.93162902
219.506	9.81518188
219.719	11.14118321
219.933	12.57206933
220.146	12.69034394
220.36	13.21693407
220.573	13.82321704
220.787	14.1807202
221	15.51397611
221.214	16.54167894
221.427	16.27690648
221.64	15.50407726
221.854	14.77454356
222.067	14.88166192
222.28	15.12580351
222.494	13.68699806
222.707	14.56041211
222.92	15.31881804
223.134	14.96650521
223.347	15.31892646
223.56	15.93995233
223.774	15.93156778
223.987	16.00273314
224.2	14.88971409
224.414	14.37603472
224.627	14.61644166
224.84	14.61736849
225.053	14.27612093
225.267	13.85573086
225.48	12.36262028
225.693	11.77947647
225.906	11.97780074
226.119	12.55576772
226.333	12.47719762
226.546	11.67830302
226.759	10.81559178
226.972	11.50183636
227.185	10.99992019
227.398	10.7112518
227.612	10.10769576
227.825	10.15047744
228.038	9.64634705
228.251	8.95281715
228.464	8.74586557
228.677	9.862985
228.89	10.13245391
229.103	9.37695608
229.316	9.51084239
229.529	9.45295107
229.743	9.88447956
229.956	9.65354907
230.169	9.15228842
230.382	9.21942758
230.595	8.71687715
230.808	9.63596738
231.021	10.0611525
231.234	11.28699655
231.447	11.72897325
231.66	12.17054546
231.872	11.89997008
232.085	13.38455735
232.298	12.45297687
232.511	12.11138327
232.724	12.36138117
232.937	11.27045715
233.15	10.73773332
233.363	10.04672265
233.576	10.21496766
233.789	9.15742281
234.002	9.17441395
234.214	8.84736445
234.427	9.61097689
234.64	10.36345646
234.853	10.9834465
235.066	10.50434276
235.279	9.47591481
235.491	10.23443134
235.704	9.4982295
235.917	8.84619031
236.13	8.10274276
236.342	8.38214687
236.555	7.46243214
236.768	7.924308
236.981	7.9309319
237.193	7.7674829
237.406	8.87967495
237.619	10.09865073
237.832	10.6947126
238.044	11.71995685
238.257	12.23737639
238.47	11.876075
238.682	12.52926603
238.895	11.45193316
239.108	11.99304948
239.32	11.12449252
239.533	12.16715694
239.746	11.22283697
239.958	10.59554335
240.171	10.99255669
240.383	11.73446774
240.596	11.64741058
240.808	12.16534048
241.021	11.53447337
241.234	11.60767177
241.446	12.23143675
241.659	12.09784531
241.871	11.74289613
242.084	9.93001026
242.296	9.44403867
242.509	7.79651076
242.721	8.68546649
242.934	9.64858764
243.146	8.95115331
243.359	10.08213946
243.571	8.77907333
243.784	9.2735589
243.996	9.5172384
244.208	10.44489834
244.421	10.20620677
244.633	10.7280165
244.846	9.6912536
245.058	10.3705427
245.27	9.90300548
245.483	10.28936613
245.695	10.0952693
245.907	9.97306511
246.12	10.87293759
246.332	10.32700573
246.544	11.46256625
246.757	11.93400164
246.969	12.64559407
247.181	11.68135637
247.394	10.25719785
247.606	10.49919234
247.818	10.46383757
248.03	11.01216529
248.243	10.86960069
248.455	10.31989068
248.667	10.83218342
248.879	10.94086305
249.092	9.69994955
249.304	10.22594951
249.516	9.89173596
249.728	9.7684599
249.94	10.11179411
250.153	10.77137973
250.365	10.46002922
250.577	10.51179044
250.789	11.94135057
251.001	11.14430204
251.213	10.2969817
251.425	10.92577866
251.637	11.08059736
251.85	11.64121982
252.062	11.7373914
252.274	12.41782234
252.486	12.57790391
252.698	12.20000162
252.91	11.97070038
253.122	11.51943948
253.334	12.05200738
253.546	12.69342534
253.758	12.63636
253.97	12.02395123
254.182	12.52981199
254.394	11.64442842
254.606	10.96205153
254.818	10.81999318
255.03	10.30180148
255.242	8.85126072
255.454	9.1775206
255.666	9.21349659
255.877	8.73588621
256.089	8.52524944
256.301	8.9897983
256.513	8.24216398
256.725	8.01774044
256.937	7.1451238
257.149	7.3953679
257.361	8.52536714
257.572	9.47186875
257.784	9.55495288
257.996	9.65468453
258.208	8.8758365
258.42	9.7684866
258.631	8.79959463
258.843	10.28665948
259.055	10.21581488
259.267	10.43832157
259.479	10.65927782
259.69	11.438721
259.902	11.8700727
260.114	12.46578612
260.325	12.37603845
260.537	12.69420023
260.749	12.77230358
260.961	13.27378078
261.172	12.47776719
261.384	13.05715252
261.596	12.43068288
261.807	11.72598953
262.019	10.80845047
262.23	10.49321505
262.442	10.29881202
262.654	11.00796165
262.865	10.52411079
263.077	10.50565099
263.288	10.06742893
263.5	9.75804419
263.712	10.07348953
263.923	9.80308712
264.135	8.88940809
264.346	8.06354893
264.558	7.58859219
264.769	7.37560137
264.981	7.35653496
265.192	6.72223663
265.404	6.68546665
265.615	6.69127773
265.827	5.78272168
266.038	6.83659518
266.25	6.87899727
266.461	6.77420864
266.673	6.57168799
266.884	6.64776933
267.095	7.27252852
267.307	7.66237484
267.518	8.28407936
267.73	8.64986149
267.941	9.41515154
268.152	8.81000052
268.364	8.46804518
268.575	9.32071096
268.786	9.70405728
268.998	10.03251159
269.209	10.46972371
269.42	10.15125073
269.632	10.60889863
269.843	11.10301145
270.054	11.42297424
270.265	11.64332503
270.477	10.8799895
270.688	11.34648589
270.899	12.00857242
271.11	12.21816174
271.322	12.33991071
271.533	12.10234099
271.744	11.59178259
271.955	11.49889987
272.166	11.28828588
272.378	10.51846185
272.589	11.12653006
272.8	11.43330093
273.011	11.21737485
273.222	11.53247052
273.433	10.80428627
273.644	10.79330979
273.856	11.55254633
274.067	10.28521196
274.278	9.81380492
274.489	10.03377159
274.7	9.74367512
274.911	10.04610638
275.122	9.69576334
275.333	8.70987549
275.544	8.11236572
275.755	7.43287402
275.966	7.60366763
276.177	7.03939965
276.388	7.10851813
276.599	6.6068214
276.81	7.12121724
277.021	7.18295535
277.232	7.53039846
277.443	7.34557315
277.654	7.45731744
277.865	7.83539947
278.076	7.29669961
278.287	6.93478159
278.497	7.90699071
278.708	7.64102701
278.919	7.53651728
279.13	8.45129169
279.341	8.2918864
279.552	8.53400916
279.763	9.20342453
279.973	9.4309272
280.184	10.20558003
280.395	10.00139379
280.606	10.64676336
280.817	10.38652782
281.027	10.46758899
281.238	10.16269327
281.449	9.90945896
281.66	9.72611677
281.87	9.89152941
282.081	8.98048036
282.292	9.78484979
282.503	9.8650479
282.713	9.50582203
282.924	10.04390307
283.135	10.29650008
283.345	10.93874304
283.556	10.4572319
283.767	10.76159243
283.977	10.89607199
284.188	10.20626511
284.399	10.36721899
284.609	9.97586172
284.82	10.30310032
285.03	10.22493501
285.241	10.68294109
285.451	10.52076578
285.662	10.61337785
285.873	11.08572504
286.083	11.49585115
286.294	11.26118526
286.504	11.63510774
286.715	10.98769298
286.925	11.39571426
287.136	11.59988155
287.346	11.16498504
287.557	11.14668991
287.767	10.39709338
287.978	10.27528895
288.188	10.51271427
288.399	10.35359779
288.609	11.39667449
288.819	11.08887068
289.03	11.31236801
289.24	11.0624213
289.451	11.077126
289.661	10.94504987
289.871	10.96462215
290.082	11.34228825
290.292	10.64245954
290.502	10.40772483
290.713	10.41928608
290.923	10.38733712
291.133	10.73516481
291.344	10.42720253
291.554	10.1891924
291.764	10.28026382
291.974	10.33130039
292.185	10.17702115
292.395	10.02741994
292.605	10.26107659
292.815	10.03816989
293.026	9.49708999
293.236	9.58311877
293.446	9.39051475
293.656	9.22469884
293.866	9.30062547
294.077	8.83647127
294.287	8.50691249
294.497	8.15026989
294.707	8.10375003
294.917	7.92640637
295.127	7.95914275
295.337	7.99701133
295.548	7.76234809
295.758	7.70928628
295.968	7.85687227
296.178	7.59172125
296.388	7.61006988
296.598	7.65420363
296.808	7.52476499
297.018	7.12990187
297.228	7.13040087
297.438	7.12041003
297.648	7.09702821
297.858	7.13065125
298.068	7.09865004
298.278	7.0153803
298.488	7.09251969
298.698	7.17871022
298.908	7.18203773
299.118	7.21510022
299.328	7.16679406
299.538	7.12038713
299.748	7.05039963
299.957	6.99443019
300.167	6.97727289
300.377	6.88123791
300.587	6.90979707
300.797	6.8249982
301.007	6.83759837
301.217	6.90399466
301.426	6.95394072
301.636	6.93837705
301.846	6.93593644
302.056	6.92333423
302.266	6.91837699
302.475	6.92293054
302.685	6.913803
302.895	6.90516249
303.105	6.86377436
303.314	6.87039216
303.524	6.83795424
303.734	6.83217406
303.944	6.8209131
304.153	6.80235886
304.363	6.82323703
304.573	6.82803773
304.782	6.84736663
304.992	6.82933989
305.202	6.84388794
305.411	6.81718765
305.621	6.81028184
305.831	6.78832732
306.04	6.79482367
306.25	6.80495631
306.459	6.80182057
306.669	6.80838866
306.878	6.82465226
307.088	6.82637006
307.298	6.8152523
307.507	6.82224795
307.717	6.80364533
307.926	6.81152465
308.136	6.80954992
308.345	6.82534891
308.555	6.83254878
308.764	6.82853495
308.974	6.82899519
309.183	6.83086615
309.392	6.84402018
309.602	6.83813622
309.811	6.8542301
310.021	6.83526904
310.23	6.85840691
310.44	6.86774717
310.649	6.87295601
310.858	6.8906006
311.068	6.88775133
311.277	6.88895797
311.486	6.90202503
311.696	6.92441266
311.905	6.93433851
312.114	6.95896124
312.324	6.97005991
312.533	6.98925647
312.742	6.98648825
312.952	6.99957661
313.161	7.01063382
313.37	7.01784081
313.579	7.02607216
313.789	7.03219167
313.998	7.04664045
314.207	7.05327099
314.416	7.07598826
314.625	7.0862892
314.835	7.0853913
315.044	7.09673169
315.253	7.10356695
315.462	7.10008556
315.671	7.10754397
315.88	7.11519027
316.09	7.11856099
316.299	7.13072382
316.508	7.1342952
316.717	7.13717957
316.926	7.1465367
317.135	7.15652008
317.344	7.15870931
317.553	7.17062866
317.762	7.18568185
317.971	7.19283965
318.18	7.20211641
318.389	7.20793956
318.598	7.20814368
318.807	7.21773425
319.016	7.21623617
319.225	7.22464525
319.434	7.22374473
319.643	7.21968265
319.852	7.23660397
320.061	7.23896931
320.27	7.24424568
320.479	7.24170265
320.688	7.24853843
320.897	7.25507416
321.105	7.26226173
321.314	7.26872215
321.523	7.27533927
321.732	7.28767674
321.941	7.29076009
322.15	7.29063963
322.359	7.29783768
322.567	7.30720964
322.776	7.31159625
322.985	7.32297702
323.194	7.32730424
323.403	7.33339467
323.611	7.34003221
323.82	7.34845113
324.029	7.35826792
324.237	7.36375166
324.446	7.37043483
324.655	7.382138
324.864	7.3939744
325.072	7.39429282
325.281	7.39873404
325.49	7.41009528
325.698	7.41493503
325.907	7.42322737
326.116	7.42542075
326.324	7.43123526
326.533	7.44112051
326.741	7.44626208
326.95	7.45563927
327.159	7.46671912
327.367	7.47309868
327.576	7.47779544
327.784	7.48730294
327.993	7.49652626
328.201	7.504464
328.41	7.50966677
328.618	7.51891068
328.827	7.53227469
329.035	7.53747774
329.244	7.54848034
329.452	7.56117574
329.661	7.57245215
329.869	7.57909837
330.078	7.58981541
330.286	7.60135325
330.495	7.61271898
330.703	7.62355889
330.911	7.63130246
331.12	7.64149054
331.328	7.65031648
331.537	7.65505997
331.745	7.66418801
331.953	7.67656728
332.162	7.68863558
332.37	7.69948563
332.578	7.70842843
332.787	7.71831891
332.995	7.72579559
333.203	7.72762175
333.411	7.73359515
333.62	7.74329171
333.828	7.7532091
334.036	7.76297479
334.244	7.76937187
334.453	7.77634294
334.661	7.7872597
334.869	7.79797776
335.077	7.80948155
335.285	7.82156592
335.494	7.83284182
335.702	7.83915316
335.91	7.85223319
336.118	7.8578685
336.326	7.86934452
336.534	7.87490651
336.742	7.87884063
336.951	7.8902005
337.159	7.90574419
337.367	7.91818327
337.575	7.92638015
337.783	7.93847968
337.991	7.94539231
338.199	7.95745929
338.407	7.96393836
338.615	7.97478437
338.823	7.98412651
339.031	7.98865974
339.239	7.9957729
339.447	8.00273532
339.655	8.00941904
339.863	8.0142145
340.071	8.01965268
340.279	8.02995434
340.487	8.04120281
340.695	8.05074739
340.903	8.05969118
341.11	8.06864841
341.318	8.07223483
341.526	8.07644003
341.734	8.08237648
341.942	8.09285462
342.15	8.09979842
342.358	8.10346079
342.565	8.1081503
342.773	8.11680366
342.981	8.12704005
343.189	8.13420843
343.397	8.14158853
343.604	8.15078759
343.812	8.158884
344.02	8.16369072
344.228	8.17496379
344.435	8.18343185
344.643	8.19049136
344.851	8.19753154
345.058	8.20134057
345.266	8.20768147
345.474	8.21530697
345.681	8.22827582
345.889	8.23644231
346.097	8.24375044
346.304	8.25222035
346.512	8.25910552
346.72	8.27029465
346.927	8.27483126
347.135	8.27856751
347.342	8.28127729
347.55	8.28938666
347.758	8.29736208
347.965	8.30151881
348.173	8.30786888
348.38	8.31972685
348.588	8.32414101
348.795	8.32765754
349.003	8.33015833
349.21	8.34081561
349.418	8.34792816
349.625	8.35182323
349.833	8.36003502
350.04	8.36519773
350.247	8.37242696
350.455	8.37711585
350.662	8.38376445
350.87	8.39052482
351.077	8.3990862
351.284	8.40953964
351.492	8.42350207
351.699	8.43080325
351.906	8.44066749
352.114	8.44515133
352.321	8.4520931
352.528	8.44975509
352.736	8.45174865
352.943	8.45966764
353.15	8.47234115
353.358	8.48357589
353.565	8.48829979
353.772	8.49310272
353.979	8.50482861
354.187	8.51228535
354.394	8.51661073
354.601	8.5212017
354.808	8.53023837
355.015	8.53651125
355.223	8.5392633
355.43	8.54279513
355.637	8.55077392
355.844	8.55225391
356.051	8.56149894
356.258	8.56639165
356.465	8.57686515
356.673	8.58268843
356.88	8.59512981
357.087	8.59988356
357.294	8.6044649
357.501	8.60574876
357.708	8.61169362
357.915	8.61581765
358.122	8.62291799
358.329	8.62812821
358.536	8.63131648
358.743	8.63431456
358.95	8.6430368
359.157	8.6456634
359.364	8.6503503
359.571	8.65892891
359.778	8.66574055
359.985	8.66688741
360.192	8.6754747
360.399	8.68294265
360.606	8.68868962
360.812	8.6927003
361.019	8.70131998
361.226	8.70804466
361.433	8.71619992
361.64	8.72145971
361.847	8.72814368
362.054	8.73018103
362.26	8.73874446
362.467	8.74455481
362.674	8.75129691
362.881	8.75822755
363.088	8.76490923
363.294	8.76919765
363.501	8.77750983
363.708	8.78714352
363.915	8.79589792
364.121	8.80200066
364.328	8.8082784
364.535	8.81184025
364.741	8.81426684
364.948	8.81894234
365.155	8.82407141
365.361	8.82910013
365.568	8.83475106
365.775	8.8407472
365.981	8.85094136
366.188	8.85746351
366.395	8.86780218
366.601	8.87079621
366.808	8.87469117
367.014	8.88102003
367.221	8.88941421
367.427	8.89622085
367.634	8.90571434
367.84	8.91253338
368.047	8.91695843
368.254	8.92275084
368.46	8.92886212
368.667	8.93726593
368.873	8.94808001
369.079	8.95622307
369.286	8.96308019
369.492	8.97187695
369.699	8.98268178
369.905	8.99177311
370.112	9.00418908
370.318	9.0109771
370.524	9.02482041
370.731	9.03212692
370.937	9.043088
371.144	9.06239205
371.35	9.07372942
371.556	9.08372771
371.763	9.09502771
371.969	9.10758722
372.175	9.11780394
372.381	9.1256152
372.588	9.13531542
372.794	9.1464315
373	9.15691684
373.206	9.16576199
373.413	9.17521658
373.619	9.18437873
373.825	9.19217124
374.031	9.19990231
374.238	9.20879282
374.444	9.2152819
374.65	9.22509726
374.856	9.22926425
375.062	9.23955466
375.268	9.24923714
375.475	9.25344935
375.681	9.26338655
375.887	9.27244086
376.093	9.28881726
376.299	9.28481281
376.505	9.29357955
376.711	9.30705993
376.917	9.31682673
377.123	9.32924609
377.329	9.34179127
377.535	9.34998071
377.741	9.36365982
377.947	9.373544
378.153	9.38947736
378.359	9.40184089
378.565	9.41666443
378.771	9.42836164
378.977	9.43895174
379.183	9.45163453
379.389	9.46579578
379.595	9.47777395
379.801	9.48989341
380.007	9.5011819
380.213	9.51205797
380.418	9.51832287
380.624	9.54119333
380.83	9.55621958
381.036	9.57154492
381.242	9.58406705
381.448	9.5931957
381.653	9.60182558
381.859	9.61638373
382.065	9.62900679
382.271	9.64275572
382.476	9.65425112
382.682	9.66356604
382.888	9.67549314
383.094	9.68539713
383.299	9.69813543
383.505	9.71068511
383.711	9.72535759
383.916	9.73618516
384.122	9.75022711
384.328	9.75781606
384.533	9.77023322
384.739	9.78333171
384.945	9.79767742
385.15	9.80599995
385.356	9.81498919
385.562	9.8253618
385.767	9.83761936
385.973	9.85258532
386.178	9.86507073
386.384	9.86846399
386.589	9.87867491
386.795	9.88713902
387	9.90097572
387.206	9.90885833
387.411	9.91890979
387.617	9.93159063
387.822	9.94141591
388.028	9.94845399
388.233	9.96065685
388.439	9.96859957
388.644	9.98078705
388.85	9.99063723
389.055	10.00466456
389.26	10.01478404
389.466	10.02757834
389.671	10.03927961
389.877	10.05270709
390.082	10.06533011
390.287	10.07860975
390.493	10.08631654
390.698	10.10692817
390.903	10.12287168
391.109	10.13704742
391.314	10.15089506
391.519	10.16496488
391.724	10.18187828
391.93	10.19094536
392.135	10.20251141
392.34	10.21522847
392.545	10.22501697
392.751	10.23617174
392.956	10.25050163
393.161	10.25966828
393.366	10.26855572
393.571	10.27669386
393.776	10.28639145
393.982	10.29335499
394.187	10.30318325
394.392	10.31114376
394.597	10.32082334
394.802	10.33493478
395.007	10.34358275
395.212	10.35299432
395.417	10.36037638
395.622	10.36508933
395.827	10.37312327
396.032	10.38082193
396.237	10.39168
396.442	10.40284909
396.647	10.40897245
396.852	10.41983646
397.057	10.42591516
397.262	10.43166633
397.467	10.44199473
397.672	10.44990685
397.877	10.45748659
398.082	10.46573451
398.287	10.47708717
398.492	10.48249746
398.697	10.49085838
398.902	10.49543536
399.107	10.49986919
399.311	10.50579774
399.516	10.51065779
399.721	10.51741121
399.926	10.5265326
400.131	10.53406266
400.336	10.54154837
400.54	10.54753481
400.745	10.55350695
400.95	10.56017499
401.155	10.56779312
401.359	10.57650064
401.564	10.58524399
401.769	10.5924487
401.974	10.60227241
402.178	10.61327893
402.383	10.6223192
402.588	10.62902823
402.792	10.6403385
402.997	10.64875044
403.202	10.65931509
403.406	10.67117728
403.611	10.68187189
403.815	10.69064053
404.02	10.70167789
404.225	10.71072966
404.429	10.71837016
404.634	10.72685847
404.838	10.73574244
405.043	10.74547973
405.247	10.75470108
405.452	10.7631482
405.656	10.77505855
405.861	10.78389107
406.065	10.79431689
406.27	10.80242221
406.474	10.81123839
406.679	10.82211349
406.883	10.83098344
407.088	10.83788035
407.292	10.84733673
407.497	10.85498156
407.701	10.86053456
407.905	10.87074306
408.11	10.88133774
408.314	10.89338413
408.518	10.90343724
408.723	10.91377738
408.927	10.92347013
409.131	10.93472624
409.336	10.94621056
409.54	10.95609786
409.744	10.96313154
409.949	10.97035468
410.153	10.98191153
410.357	10.9909892
410.561	10.99838026
410.766	11.00641129
410.97	11.0134096
411.174	11.02179152
411.378	11.031481
411.582	11.04331218
411.787	11.05254499
411.991	11.06523409
412.195	11.07104713
412.399	11.08106594
412.603	11.08877075
412.807	11.09783582
413.011	11.10751666
413.215	11.1152639
413.419	11.12240059
413.624	11.12903587
413.828	11.14162158
414.032	11.15356571
414.236	11.16525765
414.44	11.17357826
414.644	11.18207451
414.848	11.19364583
415.052	11.20431914
415.256	11.21533965
415.46	11.22798113
415.664	11.23649711
415.868	11.24460609
416.072	11.2578646
416.275	11.26881912
416.479	11.28395731
416.683	11.29588647
416.887	11.3087399
417.091	11.31925278
417.295	11.33092227
417.499	11.34183137
417.703	11.35297028
417.906	11.36473475
418.11	11.37408599
418.314	11.38703559
418.518	11.39793098
418.722	11.40717684
418.925	11.41981534
419.129	11.4309471
419.333	11.4428246
419.537	11.45333795
419.74	11.46400126
419.944	11.47810401
420.148	11.48978019
420.352	11.49886225
420.555	11.50939878
420.759	11.51540832
420.963	11.52292312
421.166	11.53053614
421.37	11.54127099
421.573	11.55476335
421.777	11.56703269
421.981	11.58089862
422.184	11.59388048
422.388	11.60534631
422.591	11.617092
422.795	11.62794512
422.999	11.63926543
423.202	11.65245906
423.406	11.66410383
423.609	11.67796175
423.813	11.6910967
424.016	11.70335532
424.22	11.71843525
424.423	11.73229096
424.627	11.74477529
424.83	11.75767458
425.033	11.7727367
425.237	11.78747121
425.44	11.80020435
425.644	11.81559828
425.847	11.82758681
426.05	11.84310823
426.254	11.85516322
426.457	11.86957862
426.66	11.88747398
426.864	11.9011177
427.067	11.91453246
427.27	11.93093267
427.474	11.94212057
427.677	11.95685726
427.88	11.96728655
428.084	11.98019191
428.287	11.99347453
428.49	12.00618013
428.693	12.01604333
428.896	12.03099254
429.1	12.04472739
429.303	12.05819812
429.506	12.06980446
429.709	12.08573604
429.912	12.09959064
430.116	12.11133581
430.319	12.12267863
430.522	12.1383505
430.725	12.14917626
430.928	12.16072918
431.131	12.1722669
431.334	12.18668425
431.537	12.20087853
431.74	12.21538081
431.943	12.23047263
432.146	12.24599265
432.349	12.26136548
432.552	12.27548481
432.755	12.28740258
432.958	12.30256411
433.161	12.31435468
433.364	12.33022661
433.567	12.34599229
433.77	12.36384486
433.973	12.37739872
434.176	12.39329474
434.379	12.40748088
434.582	12.42138744
434.785	12.43505027
434.988	12.45237721
435.19	12.46437716
435.393	12.47887956
435.596	12.49036651
435.799	12.50479199
436.002	12.51841168
436.205	12.5310262
436.407	12.543958
436.61	12.55773424
436.813	12.57371897
437.016	12.58770328
437.218	12.60478115
437.421	12.61839496
437.624	12.62890042
437.827	12.63875626
438.029	12.65221439
438.232	12.66503697
438.435	12.67482175
438.637	12.69196133
438.84	12.70607627
439.043	12.72000539
439.245	12.73071137
439.448	12.74504894
439.65	12.75933125
439.853	12.77623348
440.056	12.79002409
440.258	12.8048058
440.461	12.82015258
440.663	12.83317087
440.866	12.84664732
441.068	12.86129722
441.271	12.87639276
441.473	12.88703173
441.676	12.90445212
441.878	12.91736836
442.081	12.93653978
442.283	12.95216784
442.486	12.96982241
442.688	12.98505552
442.89	12.99596221
443.093	13.01344993
443.295	13.0247582
443.498	13.03973435
443.7	13.05261556
443.902	13.06934989
444.105	13.081453
444.307	13.09481604
444.509	13.1109251
444.712	13.12464254
444.914	13.14164032
445.116	13.15634599
445.319	13.16999095
445.521	13.18334205
445.723	13.19845278
445.925	13.21147378
446.128	13.22875629
446.33	13.24243087
446.532	13.2543736
446.734	13.26812557
446.936	13.2834863
447.139	13.3014794
447.341	13.31438591
447.543	13.32912474
447.745	13.34570521
447.947	13.36238573
448.149	13.37806085
448.351	13.39350539
448.553	13.40839173
448.755	13.42171704
448.958	13.43695608
449.16	13.44831596
449.362	13.46493892
449.564	13.48003886
449.766	13.49934987
449.968	13.51558317
450.17	13.53291523
450.372	13.54862989
450.574	13.56342213
450.776	13.57898819
450.978	13.59406465
451.179	13.60833626
451.381	13.62353049
451.583	13.63919063
451.785	13.65970911
451.987	13.6727539
452.189	13.68981494
452.391	13.70317905
452.593	13.71945122
452.795	13.73548477
452.996	13.75186876
453.198	13.76689444
453.4	13.78324753
453.602	13.79701126
453.804	13.81237798
454.005	13.82510967
454.207	13.8400481
454.409	13.85586579
454.611	13.86991879
454.812	13.8865281
455.014	13.90333281
455.216	13.91742916
455.417	13.93618188
455.619	13.95046337
455.821	13.96522306
456.022	13.97748637
456.224	13.99520206
456.426	14.00974316
456.627	14.02346101
456.829	14.04145497
457.031	14.05623712
457.232	14.07124798
457.434	14.08550299
457.635	14.10131383
457.837	14.11560441
458.038	14.13147795
458.24	14.14592531
458.441	14.16168085
458.643	14.17739279
458.844	14.19360246
459.046	14.20691823
459.247	14.22443307
459.449	14.24177426
459.65	14.25511619
459.852	14.26836287
460.053	14.28117048
460.254	14.29749038
460.456	14.31269463
460.657	14.33054821
460.859	14.34758604
461.06	14.36189158
461.261	14.37671716
461.463	14.39248137
461.664	14.40768063
461.865	14.42523446
462.066	14.44411327
462.268	14.45888212
462.469	14.47493052
462.67	14.49250001
462.872	14.5052791
463.073	14.51899334
463.274	14.53590926
463.475	14.55015918
463.676	14.56628193
463.878	14.57980039
464.079	14.59565688
464.28	14.61571363
464.481	14.62901398
464.682	14.64525889
464.883	14.65877027
465.085	14.67526578
465.286	14.69129832
465.487	14.70828507
465.688	14.72526718
465.889	14.74154433
466.09	14.75706838
466.291	14.77321252
466.492	14.78889842
466.693	14.80472686
466.894	14.8190051
467.095	14.83694314
467.296	14.85378645
467.497	14.86969503
467.698	14.8827516
467.899	14.89870343
468.1	14.91811898
468.301	14.93392024
468.502	14.94850451
468.703	14.96508793
468.903	14.98063227
469.104	14.99807054
469.305	15.01297397
469.506	15.0283307
469.707	15.04533734
469.908	15.06157598
470.109	15.0799395
470.309	15.09713191
470.51	15.1115825
470.711	15.13124768
470.912	15.14761662
471.112	15.16544691
471.313	15.18080336
471.514	15.19818148
471.715	15.21392123
471.915	15.23440963
472.116	15.25043611
472.317	15.26702472
472.517	15.28775189
472.718	15.30580868
472.919	15.32660617
473.119	15.34562751
473.32	15.36375717
473.521	15.38132536
473.721	15.40110364
473.922	15.42115981
474.122	15.43962421
474.323	15.45879998
474.523	15.47708544
474.724	15.49621608
474.925	15.51210443
475.125	15.53207202
475.326	15.54973747
475.526	15.56842513
475.727	15.58563275
475.927	15.60424381
476.127	15.619787
476.328	15.63801797
476.528	15.65454029
476.729	15.67057756
476.929	15.68885239
477.13	15.70507725
477.33	15.72356717
477.53	15.74126414
477.731	15.75880929
477.931	15.77607642
478.131	15.7921189
478.332	15.80943949
478.532	15.82729817
478.732	15.84463725
478.933	15.86490301
479.133	15.88478745
479.333	15.90212478
479.533	15.9234238
479.734	15.94277492
479.934	15.96267422
480.134	15.98232493
480.334	16.00537023
480.534	16.02532277
480.735	16.04788779
480.935	16.07051157
481.135	16.09310704
481.335	16.11476804
481.535	16.13584169
481.735	16.15699104
481.935	16.1807917
482.136	16.202812
482.336	16.22543516
482.536	16.24900782
482.736	16.27020371
482.936	16.29133977
483.136	16.31155841
483.336	16.33549099
483.536	16.36177192
483.736	16.38388151
483.936	16.40615259
484.136	16.43147267
484.336	16.4545156
484.536	16.47647416
484.736	16.50059853
484.936	16.52269928
485.135	16.54442743
485.335	16.56593736
485.535	16.59028444
485.735	16.61388353
485.935	16.63705469
486.135	16.66180905
486.335	16.68863247
486.534	16.71083064
486.734	16.73378794
486.934	16.75815996
487.134	16.78432913
487.334	16.80869723
487.533	16.82974478
487.733	16.85015157
487.933	16.87267445
488.133	16.89808537
488.332	16.92054966
488.532	16.94579209
488.732	16.96978722
488.931	16.99574977
489.131	17.0194951
489.331	17.0436217
489.53	17.06838341
489.73	17.09126054
489.93	17.11391304
490.129	17.13767037
490.329	17.15996161
490.528	17.18190375
490.728	17.20775769
490.928	17.23226646
491.127	17.25654366
491.327	17.28066388
491.526	17.30487007
491.726	17.33197294
491.925	17.35862741
492.125	17.38402364
492.324	17.40938896
492.524	17.43361029
492.723	17.45819172
492.922	17.48186439
493.122	17.50453742
493.321	17.53050095
493.521	17.55858758
493.72	17.58435179
493.919	17.61089729
494.119	17.63972758
494.318	17.66706929
494.517	17.69093983
494.717	17.71661014
494.916	17.74258884
495.115	17.76886901
495.315	17.79573138
495.514	17.82207179
495.713	17.84922862
495.912	17.87381065
496.112	17.90061509
496.311	17.92793108
496.51	17.95544319
496.709	17.98338452
496.908	18.01197062
497.108	18.03978965
497.307	18.06749054
497.506	18.09537199
497.705	18.12017981
497.904	18.14828379
498.103	18.17758283
498.302	18.2023162
498.501	18.22957336
498.701	18.26069615
498.9	18.28942953
499.099	18.31947218
499.298	18.34678466
499.497	18.37359748
499.696	18.40149753
499.895	18.42904822
500.094	18.45990778
500.293	18.48839319
500.492	18.51892837
500.691	18.54688838
500.89	18.57490782
501.088	18.60243978
501.287	18.63240448
501.486	18.6616082
501.685	18.69076003
501.884	18.72202225
502.083	18.74975186
502.282	18.77624519
502.481	18.80602263
502.679	18.83499079
502.878	18.8641034
503.077	18.89241648
503.276	18.91865622
503.475	18.9477795
503.673	18.97578622
503.872	19.00510486
504.071	19.03601921
504.27	19.0633284
504.468	19.09306183
504.667	19.11695101
504.866	19.14571439
505.064	19.17274731
505.263	19.20300117
505.462	19.23275601
505.66	19.2597178
505.859	19.28747149
506.058	19.31469816
506.256	19.34407819
506.455	19.37203588
506.653	19.40081821
506.852	19.43034369
507.05	19.45576601
507.249	19.48204936
507.448	19.51130239
507.646	19.54032369
507.845	19.57043647
508.043	19.59552069
508.242	19.61979495
508.44	19.64694327
508.638	19.67354463
508.837	19.70306976
509.035	19.73054475
509.234	19.76126685
509.432	19.78833669
509.631	19.81664974
509.829	19.84678161
510.027	19.87633841
510.226	19.90262436
510.424	19.93008782
510.622	19.95664577
510.821	19.9837068
511.019	20.01177511
511.217	20.04257379
511.415	20.07228925
511.614	20.10161175
511.812	20.13050922
512.01	20.1603813
512.208	20.19406151
512.407	20.22647879
512.605	20.25654327
512.803	20.28668605
513.001	20.31794315
513.199	20.34563008
513.398	20.37521073
513.596	20.40674305
513.794	20.43623713
513.992	20.4639058
514.19	20.49162913
514.388	20.52331033
514.586	20.55678047
514.784	20.58999515
514.982	20.62190135
515.18	20.65252673
515.378	20.68416079
515.576	20.71597831
515.774	20.74701909
515.972	20.77736197
516.17	20.80807872
516.368	20.8378253
516.566	20.86784178
516.764	20.90024403
516.962	20.93154029
517.16	20.9646233
517.358	20.99687327
517.556	21.02886734
517.754	21.05919071
517.952	21.0887766
518.149	21.12131751
518.347	21.15514358
518.545	21.18646947
518.743	21.21530466
518.941	21.24814827
519.138	21.2798722
519.336	21.31096593
519.534	21.34280442
519.732	21.37490474
519.929	21.40645752
520.127	21.44108911
520.325	21.47300322
520.523	21.5042618
520.72	21.53837717
520.918	21.56897691
521.116	21.60149432
521.313	21.63312917
521.511	21.66660122
521.709	21.69518347
521.906	21.7264166
522.104	21.75848049
522.301	21.79179467
522.499	21.82065905
522.696	21.85322006
522.894	21.88768308
523.092	21.91760728
523.289	21.95033301
523.487	21.98279418
523.684	22.01360284
523.882	22.04531067
524.079	22.07771159
524.276	22.10744565
524.474	22.13746997
524.671	22.17099122
524.869	22.20248576
525.066	22.23686425
525.264	22.26641159
525.461	22.29459783
525.658	22.32432658
525.856	22.35815258
526.053	22.38891783
526.25	22.41799229
526.448	22.44679383
526.645	22.48052057
526.842	22.51009346
527.039	22.53931159
527.237	22.57392082
527.434	22.60331868
527.631	22.63247271
527.828	22.66292801
528.026	22.6931156
528.223	22.72175119
528.42	22.75326168
528.617	22.78750602
528.814	22.81581371
529.012	22.84393005
529.209	22.86981149
529.406	22.90214066
529.603	22.9328999
529.8	22.96283665
529.997	22.99099572
530.194	23.02163647
530.391	23.05441582
530.588	23.08460792
530.785	23.11504406
530.982	23.14645616
531.179	23.17436594
531.376	23.20009086
531.573	23.22784189
531.77	23.25745547
531.967	23.28681717
532.164	23.31583442
532.361	23.34592465
532.558	23.37231652
532.755	23.39532954
532.952	23.42030654
533.149	23.44826506
533.346	23.477447
533.543	23.50484128
533.739	23.53143938
533.936	23.55868414
534.133	23.58589597
534.33	23.61052177
534.527	23.63626683
534.723	23.66210595
534.92	23.68700475
535.117	23.71078159
535.314	23.73697262
535.51	23.76379866
535.707	23.78973718
535.904	23.81542744
536.1	23.83873284
536.297	23.8611417
536.494	23.88560438
536.69	23.91104098
536.887	23.93788425
537.084	23.96420241
537.28	23.98900865
537.477	24.01144045
537.674	24.03216489
537.87	24.05578756
538.067	24.08033736
538.263	24.1032805
538.46	24.13032581
538.656	24.15074708
538.853	24.17628787
539.049	24.19936754
539.246	24.22169567
539.442	24.24386234
539.639	24.26499969
539.835	24.28804232
540.032	24.30980975
540.228	24.32987547
540.424	24.35159343
540.621	24.37208909
540.817	24.39476285
541.014	24.41485827
541.21	24.43820949
541.406	24.45822954
541.603	24.47815681
541.799	24.49929152
541.995	24.5203651
542.191	24.53809284
542.388	24.55842707
542.584	24.57434903
542.78	24.59737815
542.976	24.6137944
543.173	24.63358366
543.369	24.65378897
543.565	24.67221727
543.761	24.69009487
543.957	24.70580611
544.154	24.72465887
544.35	24.74759452
544.546	24.76629759
544.742	24.78479735
544.938	24.80007489
545.134	24.81611674
545.33	24.82989875
545.526	24.84746212
545.722	24.86543353
545.919	24.88495218
546.115	24.90278476
546.311	24.92129757
546.507	24.93589163
546.703	24.95458485
546.899	24.96688868
547.095	24.98417625
547.29	25.00074114
547.486	25.01829808
547.682	25.03716315
547.878	25.05467662
548.074	25.07385662
548.27	25.08760509
548.466	25.10179594
548.662	25.11815184
548.858	25.13445112
549.053	25.15070901
549.249	25.16732881
549.445	25.18697412
549.641	25.20165996
549.837	25.21820217
550.032	25.23205638
550.228	25.24526491
550.424	25.26026765
550.62	25.28134865
550.815	25.29565202
551.011	25.31569237
551.207	25.329605
551.402	25.34356657
551.598	25.35960021
551.794	25.37491024
551.989	25.39031145
552.185	25.4055074
552.381	25.42312432
552.576	25.43815609
552.772	25.45457495
552.967	25.47104166
553.163	25.48574794
553.359	25.50486614
553.554	25.51955679
553.75	25.5385854
553.945	25.55754932
554.141	25.57329823
554.336	25.5939018
554.532	25.61086237
554.727	25.62616574
554.922	25.64531157
555.118	25.66026775
555.313	25.67874423
555.509	25.6951302
555.704	25.71363599
555.899	25.73199154
556.095	25.75050161
556.29	25.77056395
556.486	25.79111449
556.681	25.81230745
556.876	25.83388997
557.071	25.85378905
557.267	25.87721644
557.462	25.89460399
557.657	25.9134616
557.853	25.9315787
558.048	25.95026317
558.243	25.97072383
558.438	25.99379174
558.633	26.01632777
558.829	26.03618599
559.024	26.05786669
559.219	26.08108132
559.414	26.10537301
559.609	26.1288996
559.804	26.1495755
559.999	26.17032309
560.194	26.19427346
560.39	26.21439954
560.585	26.23591055
560.78	26.2569131
560.975	26.27476953
561.17	26.29586563
561.365	26.3178303
561.56	26.34344024
561.755	26.3675977
561.95	26.39460556
562.145	26.42303873
562.34	26.44853381
562.535	26.46903916
562.729	26.49226661
562.924	26.51594181
563.119	26.54028108
563.314	26.56766973
563.509	26.59677173
563.704	26.62183101
563.899	26.65004161
564.093	26.68059106
564.288	26.70572946
564.483	26.73515472
564.678	26.76300647
564.873	26.79188572
565.067	26.82205609
565.262	26.84892433
565.457	26.87756522
565.652	26.9050332
565.846	26.93499519
566.041	26.96125347
566.236	26.98660764
566.43	27.01636793
566.625	27.04804499
566.82	27.08141897
567.014	27.11190773
567.209	27.14281941
567.404	27.17111539
567.598	27.19872801
567.793	27.23011739
567.987	27.25849568
568.182	27.28550204
568.376	27.31758348
568.571	27.34816929
568.765	27.37940917
568.96	27.4126171
569.154	27.44639572
569.349	27.48127153
569.543	27.51372182
569.738	27.54807481
569.932	27.58023425
570.127	27.61573894
570.321	27.64829799
570.515	27.68566774
570.71	27.72122706
570.904	27.75241161
571.098	27.78724604
571.293	27.82345383
571.487	27.85859163
571.681	27.89101819
571.876	27.92879402
572.07	27.96312517
572.264	27.99715249
572.458	28.03045261
572.653	28.06344891
572.847	28.10109375
573.041	28.13754538
573.235	28.16832112
573.43	28.2044563
573.624	28.23716079
573.818	28.27001869
574.012	28.30643344
574.206	28.34101895
574.4	28.37918287
574.594	28.41225534
574.788	28.4469107
574.983	28.48050188
575.177	28.51603454
575.371	28.54939303
575.565	28.58306523
575.759	28.62025656
575.953	28.65262887
576.147	28.69254742
576.341	28.72850442
576.535	28.76596114
576.729	28.80064491
576.923	28.83196664
577.117	28.8648608
577.31	28.90350865
577.504	28.93444847
577.698	28.96978596
577.892	29.00255092
578.086	29.03719397
578.28	29.07055827
578.474	29.10169901
578.668	29.13411958
578.861	29.1653488
579.055	29.20062901
579.249	29.23351335
579.443	29.26168247
579.636	29.29432268
579.83	29.32632521
580.024	29.358509
580.218	29.38585032
580.411	29.41659043
580.605	29.44759855
580.799	29.48106749
580.992	29.51257966
581.186	29.54302472
581.38	29.5718729
581.573	29.60337786
581.767	29.63622591
581.961	29.66532543
582.154	29.69575972
582.348	29.72806613
582.541	29.75716259
582.735	29.78656689
582.928	29.81451271
583.122	29.84384484
583.315	29.87773901
583.509	29.91118775
583.702	29.94049842
583.896	29.97338088
584.089	30.00423374
584.283	30.03419151
584.476	30.06156309
584.67	30.09076337
584.863	30.11664505
585.056	30.14366061
585.25	30.16967255
585.443	30.1978821
585.636	30.22626997
585.83	30.25056739
586.023	30.2844457
586.216	30.31074395
586.41	30.33470124
586.603	30.36194606
586.796	30.38725289
586.989	30.41500471
587.183	30.44170662
587.376	30.46699695
587.569	30.49340362
587.762	30.52029205
587.955	30.5417973
588.149	30.56576974
588.342	30.59366548
588.535	30.6219483
588.728	30.64961153
588.921	30.67446251
589.114	30.69999738
589.307	30.72445859
589.5	30.7455511
589.693	30.76839659
589.886	30.79171999
590.08	30.81265233
590.273	30.83664942
590.466	30.85952071
590.659	30.88339328
590.852	30.90932067
591.044	30.93168068
591.237	30.95455293
591.43	30.97564363
591.623	30.99987754
591.816	31.02205493
592.009	31.04114834
592.202	31.06103025
592.395	31.08041683
592.588	31.09764467
592.781	31.11346941
592.973	31.13588964
593.166	31.15577447
593.359	31.1774573
593.552	31.19750566
593.745	31.21824573
593.937	31.23978201
594.13	31.2564256
594.323	31.27614895
594.515	31.2943822
594.708	31.31525971
594.901	31.33220549
595.094	31.3516777
595.286	31.36990237
595.479	31.38407671
595.672	31.40105446
595.864	31.42077929
596.057	31.4414595
596.249	31.46094968
596.442	31.47740139
596.635	31.49612931
596.827	31.51675053
597.02	31.53315654
597.212	31.55090747
597.405	31.56629811
597.597	31.5879272
597.79	31.60537496
597.982	31.62038538
598.175	31.63885893
598.367	31.65173264
598.559	31.66705092
598.752	31.67870921
598.944	31.69459256
599.137	31.7053866
599.329	31.71452096
599.521	31.72824932
599.714	31.73900972
599.906	31.74992804
600.098	31.75993438
600.291	31.76902587
600.483	31.78292736
600.675	31.79583112
600.868	31.80565351
601.06	31.8146062
601.252	31.82538214
601.444	31.8387341
601.637	31.85168974
601.829	31.86160902
602.021	31.87533878
602.213	31.88388052
602.405	31.89826223
602.597	31.91222557
602.789	31.92683457
602.982	31.93941302
603.174	31.95296559
603.366	31.96746824
603.558	31.98270591
603.75	31.99781895
603.942	32.00992924
604.134	32.02108646
604.326	32.03318907
604.518	32.03848076
604.71	32.04826315
604.902	32.05822746
605.094	32.07245992
605.286	32.08212006
605.478	32.09162204
605.67	32.09991215
605.862	32.1121276
606.054	32.11788398
606.246	32.13141929
606.437	32.13898768
606.629	32.14112426
606.821	32.14607447
607.013	32.15173415
607.205	32.16153308
607.397	32.16754428
607.588	32.17206854
607.78	32.17801067
607.972	32.18504082
608.164	32.19428507
608.355	32.2061702
608.547	32.21743289
608.739	32.22255158
608.93	32.2291203
609.122	32.23882796
609.314	32.24781067
609.505	32.25416891
609.697	32.26157067
609.889	32.26523452
610.08	32.27553935
610.272	32.27930071
610.463	32.28570244
610.655	32.30141237
610.847	32.31043066
611.038	32.31599519
611.23	32.32324001
611.421	32.33461018
611.613	32.34102819
611.804	32.34466924
611.996	32.34780117
612.187	32.3534177
612.379	32.358397
612.57	32.36517314
612.761	32.37514178
612.953	32.38639479
613.144	32.38964945
613.336	32.39674834
613.527	32.4029391
613.718	32.40860324
613.91	32.4199869
614.101	32.42430099
614.292	32.43637294
614.483	32.44201975
614.675	32.4448121
614.866	32.45102595
615.057	32.4572976
615.248	32.46191433
615.44	32.46806301
615.631	32.47719793
615.822	32.48377766
616.013	32.49388727
616.204	32.50181126
616.396	32.50775256
616.587	32.51276098
616.778	32.51681373
616.969	32.51514716
617.16	32.52287246
617.351	32.52767339
617.542	32.53395007
617.733	32.5359022
617.924	32.53456592
618.115	32.54222497
618.306	32.54275681
618.497	32.54454182
618.688	32.55053492
618.879	32.55381831
619.07	32.56363967
619.261	32.57248811
619.452	32.57793852
619.643	32.58017313
619.834	32.58880405
620.025	32.59497977
620.216	32.60226501
620.407	32.6091766
620.597	32.61453319
620.788	32.6229965
620.979	32.63313226
621.17	32.63840527
621.361	32.64774967
621.551	32.65598037
621.742	32.66543572
621.933	32.67648428
622.124	32.68121667
622.314	32.68815019
622.505	32.70331251
622.696	32.70501521
622.886	32.7141794
623.077	32.72390334
623.268	32.72772911
623.458	32.73328174
623.649	32.74336264
623.84	32.75309699
624.03	32.76024928
624.221	32.7688375
624.411	32.77446902
624.602	32.78476473
624.792	32.79431047
624.983	32.80414452
625.173	32.8136762
625.364	32.82068767
625.554	32.83168203
625.745	32.8409304
625.935	32.85115731
626.126	32.86183349
626.316	32.87239289
626.507	32.87886752
626.697	32.89931445
626.887	32.91071224
627.078	32.9148835
627.268	32.92550731
627.458	32.93756704
627.649	32.95294756
627.839	32.960113
628.029	32.97111171
628.22	32.97797319
628.41	32.98791746
628.6	33.00178886
628.79	33.01411186
628.981	33.02894307
629.171	33.0418274
629.361	33.05307357
629.551	33.06135598
629.741	33.07352893
629.932	33.08847938
630.122	33.10223816
630.312	33.11357148
630.502	33.12930837
630.692	33.14439181
630.882	33.15948167
631.072	33.17629173
631.262	33.18928135
631.452	33.20446678
631.642	33.21433883
631.832	33.23078751
632.022	33.24654576
632.212	33.26744551
632.402	33.28745949
632.592	33.30605262
632.782	33.32204376
632.972	33.33632412
633.162	33.35434916
633.352	33.37819557
633.542	33.39540892
633.732	33.41594487
633.922	33.4310321
634.111	33.45259628
634.301	33.47096514
634.491	33.48652417
634.681	33.50028717
634.871	33.51368274
635.06	33.53452822
635.25	33.55594274
635.44	33.57131272
635.63	33.59015494
635.819	33.61034267
636.009	33.62799891
636.199	33.64516251
636.388	33.66859964
636.578	33.69110579
636.768	33.71240137
636.957	33.72807425
637.147	33.74577023
637.337	33.76560763
637.526	33.7878261
637.716	33.80505799
637.905	33.82553316
638.095	33.85032085
638.284	33.87572944
638.474	33.89757372
638.663	33.91954116
638.853	33.94605054
639.042	33.96996116
639.232	33.99053236
639.421	34.01806086
639.611	34.04707792
639.8	34.07421053
639.99	34.10934639
640.179	34.13434442
640.368	34.153854
640.558	34.17625133
640.747	34.20041454
640.936	34.22873638
641.126	34.25533861
641.315	34.27645108
641.504	34.30608222
641.694	34.33417757
641.883	34.36466349
642.072	34.38585977
642.261	34.41171723
642.451	34.44668374
642.64	34.47745736
642.829	34.51276173
643.018	34.5351262
643.207	34.57232178
643.397	34.600809
643.586	34.62871772
643.775	34.65676732
643.964	34.68083532
644.153	34.71324185
644.342	34.74394318
644.531	34.77577703
644.72	34.8087892
644.909	34.84363077
645.098	34.88075965
645.287	34.91429712
645.476	34.95209182
645.665	34.98533893
645.854	35.01773988
646.043	35.05612917
646.232	35.09848014
646.421	35.12910228
646.61	35.16743909
646.799	35.19844985
646.988	35.24166798
647.177	35.27476242
647.365	35.31392601
647.554	35.34951578
647.743	35.38314266
647.932	35.42079264
648.121	35.45688056
648.309	35.49438718
648.498	35.52776741
648.687	35.56095303
648.876	35.60284228
649.064	35.63991666
649.253	35.67482803
649.442	35.70862318
649.63	35.74406882
649.819	35.78445032
650.008	35.8243082
650.196	35.85556041
650.385	35.89620483
650.574	35.93443843
650.762	35.97642982
650.951	36.01144858
651.139	36.05290868
651.328	36.09839066
651.516	36.13844973
651.705	36.18527438
651.893	36.23027698
652.082	36.27463552
652.27	36.32017299
652.459	36.36879034
652.647	36.41817694
652.836	36.46009907
653.024	36.5075005
653.213	36.55330604
653.401	36.59897365
653.589	36.64980782
653.778	36.69523741
653.966	36.73565129
654.154	36.77715858
654.343	36.82164742
654.531	36.86482969
654.719	36.90944531
654.908	36.96144094
655.096	37.00770039
655.284	37.05134212
655.472	37.09594911
655.661	37.13773177
655.849	37.17967613
656.037	37.22614084
656.225	37.27738115
656.413	37.32408696
656.601	37.37176231
656.79	37.41529764
656.978	37.45719553
657.166	37.50729063
657.354	37.54505658
657.542	37.59708236
657.73	37.64104093
657.918	37.68886294
658.106	37.73871904
658.294	37.7893888
658.482	37.83693284
658.67	37.89037572
658.858	37.9334208
659.046	37.98003152
659.234	38.02626054
659.422	38.08216018
659.61	38.13563843
659.798	38.18249013
659.986	38.22644911
660.173	38.27233922
660.361	38.31703823
660.549	38.36011499
660.737	38.41639074
660.925	38.460375
661.113	38.5086454
661.3	38.56407322
661.488	38.60924008
661.676	38.66116973
661.864	38.71462291
662.051	38.76729339
662.239	38.81194395
662.427	38.86117956
662.614	38.90576827
662.802	38.95208725
662.99	39.00807452
663.177	39.05498471
663.365	39.10434374
663.553	39.14931317
663.74	39.19829176
663.928	39.24942892
664.115	39.29561817
664.303	39.34536351
664.49	39.39628826
664.678	39.43978112
664.866	39.49225535
665.053	39.53979205
665.24	39.59241791
665.428	39.6368661
665.615	39.68394883
665.803	39.72791095
665.99	39.77187058
666.178	39.82409893
666.365	39.8736088
666.552	39.92341331
666.74	39.97646826
666.927	40.02261608
667.114	40.07118197
667.302	40.11395876
667.489	40.16155296
667.676	40.20995617
667.864	40.27220987
668.051	40.32414535
668.238	40.3703265
668.425	40.42051316
668.613	40.4694374
668.8	40.51838707
668.987	40.56785143
669.174	40.61694565
669.361	40.66980608
669.548	40.7152151
669.736	40.76819575
669.923	40.81976077
670.11	40.87069729
670.297	40.92071415
670.484	40.96677142
670.671	41.01071316
670.858	41.06606894
671.045	41.11646726
671.232	41.1732578
671.419	41.22164516
671.606	41.27817501
671.793	41.31954013
671.98	41.35884866
672.167	41.40572136
672.354	41.45886842
672.541	41.50877331
672.728	41.56483347
672.915	41.62121193
673.101	41.66317577
673.288	41.71777116
673.475	41.77248429
673.662	41.82147828
673.849	41.87530881
674.035	41.92563398
674.222	41.97286491
674.409	42.02735839
674.596	42.07957169
674.783	42.12307428
674.969	42.17837262
675.156	42.22418084
675.343	42.27760354
675.529	42.31949687
675.716	42.36699174
675.903	42.42696651
676.089	42.48015694
676.276	42.52720621
676.462	42.58047099
676.649	42.62526877
676.836	42.66312966
677.022	42.72417242
677.209	42.76911906
677.395	42.81324347
677.582	42.8556349
677.768	42.90149871
677.955	42.94616916
678.141	42.99660948
678.328	43.0412468
678.514	43.09160633
678.701	43.13027824
678.887	43.16947836
679.073	43.21604904
679.26	43.26419461
679.446	43.3148595
679.632	43.36330774
679.819	43.40857241
680.005	43.45639988
680.191	43.49972596
680.378	43.54520233
680.564	43.59266902
680.75	43.64474992
680.936	43.68301531
681.123	43.7285531
681.309	43.77605854
681.495	43.82114749
681.681	43.86539552
681.867	43.91386961
682.054	43.96454258
682.24	44.01154796
682.426	44.05593751
682.612	44.10965013
682.798	44.16499305
682.984	44.2143578
683.17	44.25676451
683.356	44.30671922
683.542	44.35447616
683.728	44.40311111
683.914	44.45342007
684.1	44.50681877
684.286	44.55105284
684.472	44.58994649
684.658	44.63750956
684.844	44.68163158
685.03	44.72702254
685.216	44.77546257
685.402	44.82519868
685.588	44.87512539
685.774	44.92173388
685.96	44.95822324
686.145	44.99678136
686.331	45.04109927
686.517	45.08866499
686.703	45.13135711
686.889	45.1712311
687.074	45.22132055
687.26	45.26235008
687.446	45.30351167
687.631	45.34368129
687.817	45.38208555
688.003	45.42100154
688.189	45.46698124
688.374	45.51841194
688.56	45.56683984
688.745	45.61936246
688.931	45.66443951
689.117	45.70868726
689.302	45.75813335
689.488	45.80056107
689.673	45.84060893
689.859	45.88786965
690.044	45.94031269
690.23	45.98667267
690.415	46.03042948
690.601	46.07067275
690.786	46.12445554
690.972	46.16956938
691.157	46.20670588
691.343	46.25161669
691.528	46.30175199
691.713	46.3444252
691.899	46.38941897
692.084	46.43131712
692.269	46.47877714
692.455	46.5153438
692.64	46.55105051
692.825	46.59162476
693.011	46.63408694
693.196	46.67943731
693.381	46.71766067
693.566	46.76774781
693.752	46.8024925
693.937	46.84390142
694.122	46.88183812
694.307	46.91061644
694.492	46.94434513
694.678	46.97645562
694.863	47.00610829
695.048	47.04683481
695.233	47.08649172
695.418	47.13068589
695.603	47.17304189
695.788	47.21503904
695.973	47.24624984
696.158	47.2787419
696.343	47.317181
696.528	47.36718985
696.713	47.40659961
696.898	47.44547823
697.083	47.4695662
697.268	47.51622407
697.453	47.54673172
697.638	47.57816921
697.823	47.61608064
698.008	47.65452746
698.192	47.69663952
698.377	47.7400661
698.562	47.77010277
698.747	47.81512152
698.932	47.85615459
699.117	47.8851888
699.301	47.91009451
699.486	47.94573916
699.671	47.98042918
699.856	48.01814221
700.04	48.04659464
700.225	48.08082617
700.41	48.11327129
700.594	48.14826295
700.779	48.1758477
700.964	48.22081607
701.148	48.25103895
701.333	48.29003877
701.517	48.33621764
701.702	48.36981085
701.887	48.4020195
702.071	48.43944164
702.256	48.46861589
702.44	48.50717191
702.625	48.53325081
702.809	48.56857713
702.994	48.60157631
703.178	48.63120518
703.362	48.66257555
703.547	48.68779846
703.731	48.72357704
703.916	48.77008643
704.1	48.80280508
704.284	48.83443866
704.469	48.85610817
704.653	48.89130271
704.837	48.92295411
705.022	48.9560865
705.206	48.97730001
705.39	49.01317191
705.575	49.0344538
705.759	49.0626293
705.943	49.08643042
706.127	49.11862032
706.311	49.14643449
706.496	49.18544543
706.68	49.21132887
706.864	49.24686067
707.048	49.2756121
707.232	49.30338746
707.416	49.3374314
707.6	49.36816865
707.785	49.39656622
707.969	49.42934833
708.153	49.45298632
708.337	49.48996161
708.521	49.51182889
708.705	49.54659317
708.889	49.57148112
709.073	49.60665157
709.257	49.63113351
709.441	49.6668927
709.624	49.69927051
709.808	49.74118127
709.992	49.77418119
710.176	49.797474
710.36	49.81872242
710.544	49.84320976
710.728	49.8662894
710.912	49.89741791
711.095	49.92659337
711.279	49.95183879
711.463	49.97861038
711.647	50.00071371
711.83	50.02563003
712.014	50.05395552
712.198	50.08210274
712.382	50.1212491
712.565	50.13579089
712.749	50.16781143
712.933	50.19623915
713.116	50.23190204
713.3	50.26518614
713.483	50.29211124
713.667	50.31818894
713.851	50.34881021
714.034	50.39132855
714.218	50.42289401
714.401	50.45951019
714.585	50.49763269
714.768	50.53052841
714.952	50.55042178
715.135	50.57534521
715.319	50.60060993
715.502	50.63527657
715.686	50.66955547
715.869	50.69090153
716.052	50.7216949
716.236	50.74889116
716.419	50.78390323
716.602	50.80219834
716.786	50.82444963
716.969	50.83874853
717.152	50.85891011
717.336	50.88599012
717.519	50.91048703
717.702	50.92573292
717.885	50.94633313
718.069	50.97466097
718.252	51.00162296
718.435	51.02907771
718.618	51.05601372
718.801	51.09955377
718.985	51.12931902
719.168	51.15118512
719.351	51.17239552
719.534	51.19084606
719.717	51.21697853
719.9	51.24503792
720.083	51.26194396
720.266	51.29084993
720.449	51.32382833
720.632	51.34510943
720.815	51.37467888
720.998	51.40400538
721.181	51.43096657
721.364	51.44627479
721.547	51.47308644
721.73	51.49547962
721.913	51.51686775
722.096	51.53103379
722.279	51.54991684
722.461	51.56708023
722.644	51.58860312
722.827	51.61485216
723.01	51.64676093
723.193	51.67055436
723.376	51.69283359
723.558	51.72114288
723.741	51.73429033
723.924	51.76264208
724.107	51.78198222
724.289	51.80357239
724.472	51.83308747
724.655	51.85721433
724.837	51.87487519
725.02	51.89043075
725.203	51.91411003
725.385	51.93490019
725.568	51.96345156
725.75	51.98415945
725.933	52.00416269
726.115	52.00270707
726.298	52.0284428
726.481	52.04399528
726.663	52.06663302
726.845	52.07909472
727.028	52.09289212
727.21	52.11649346
727.393	52.12898197
727.575	52.15030284
727.758	52.17104604
727.94	52.18235628
728.122	52.19217256
728.305	52.2191734
728.487	52.2354527
728.67	52.25774888
728.852	52.27961328
729.034	52.30041731
729.216	52.31277696
729.399	52.33085528
729.581	52.34962783
729.763	52.37639513
729.945	52.41164156
730.128	52.42827277
730.31	52.44414041
730.492	52.46434607
730.674	52.48723275
730.856	52.50653617
731.039	52.51938763
731.221	52.54186056
731.403	52.57310228
731.585	52.59692165
731.767	52.6204538
731.949	52.64535463
732.131	52.65320444
732.313	52.67162464
732.495	52.68336797
732.677	52.7015286
732.859	52.71668181
733.041	52.74065209
733.223	52.7526082
733.405	52.76967509
733.587	52.78629707
733.769	52.80014028
733.951	52.82089211
734.132	52.83897901
734.314	52.85371272
734.496	52.86562803
734.678	52.88489095
734.86	52.9047502
735.042	52.92272642
735.223	52.92939186
735.405	52.94437108
735.587	52.96188514
735.769	52.98214272
735.95	53.00570682
736.132	53.02351515
736.314	53.03855649
736.495	53.05837166
736.677	53.0821294
736.859	53.10857349
737.04	53.12655838
737.222	53.14275522
737.403	53.15651025
737.585	53.17478244
737.767	53.18347559
737.948	53.19994372
738.13	53.20948825
738.311	53.22291696
738.493	53.2372819
738.674	53.25442007
738.856	53.27068485
739.037	53.2831946
739.219	53.2975735
739.4	53.30692272
739.581	53.32933343
739.763	53.33910912
739.944	53.35200322
740.125	53.37116884
740.307	53.38275936
740.488	53.39929663
740.669	53.4038471
740.851	53.42178203
741.032	53.43979071
741.213	53.45781688
741.395	53.47734125
741.576	53.50153094
741.757	53.51858039
741.938	53.54112552
742.119	53.56032019
742.301	53.57277942
742.482	53.59793645
742.663	53.61516253
742.844	53.63086626
743.025	53.65030861
743.206	53.67035924
743.387	53.67597677
743.568	53.69697484
743.749	53.7140658
743.93	53.73668084
744.111	53.75273871
744.292	53.76007336
744.473	53.78172889
744.654	53.80607451
744.835	53.8190698
745.016	53.83701647
745.197	53.84625394
745.378	53.85774664
745.559	53.87320327
745.74	53.88549516
745.921	53.90387471
746.102	53.93070743
746.282	53.94539119
746.463	53.97237942
746.644	54.00007086
746.825	54.01006874
747.006	54.0349357
747.186	54.06021282
747.367	54.08119056
747.548	54.10308411
747.728	54.12067225
747.909	54.1405434
748.09	54.16607528
748.27	54.17912001
748.451	54.19388005
748.632	54.21514106
748.812	54.22591052
748.993	54.25103403
749.173	54.27632621
749.354	54.30382802
749.535	54.32617551
749.715	54.34940668
749.896	54.3571708
750.076	54.3651645
750.257	54.37887291
750.437	54.38594193
750.618	54.40665093
750.798	54.41378687
750.978	54.42099245
751.159	54.42757626
751.339	54.43520153
751.52	54.44666519
751.7	54.46285117
751.88	54.47598252
752.061	54.48750023
752.241	54.49107992
752.421	54.5124715
752.601	54.53312516
752.782	54.55549569
752.962	54.55988613
753.142	54.57359009
753.322	54.58107071
753.503	54.59628634
753.683	54.62672162
753.863	54.65602395
754.043	54.66534356
754.223	54.68486686
754.403	54.69402722
754.583	54.72238122
754.764	54.73768376
754.944	54.76408737
755.124	54.79330799
755.304	54.81394581
755.484	54.82827281
755.664	54.84435135
755.844	54.88263166
756.024	54.90735702
756.204	54.92801687
756.384	54.95059328
756.564	54.97359213
756.743	54.99255634
756.923	55.00331992
757.103	55.04030866
757.283	55.06356205
757.463	55.06985682
757.643	55.07793038
757.823	55.10802504
758.002	55.14151834
758.182	55.17697153
758.362	55.186933
758.542	55.22070018
758.721	55.24588981
758.901	55.27059289
759.081	55.29621724
759.261	55.32705233
759.44	55.35141158
759.62	55.36880306
759.8	55.40867295
759.979	55.42827635
760.159	55.46316309
760.338	55.46932346
760.518	55.48817987
760.698	55.51262891
760.877	55.54545934
761.057	55.56102794
761.236	55.58873926
761.416	55.59847405
761.595	55.60550756
761.775	55.60707602
761.954	55.62674655
762.133	55.65152109
762.313	55.66933465
762.492	55.68099784
762.672	55.69632721
762.851	55.70418951
763.03	55.70633966
763.21	55.72464404
763.389	55.73734187
763.568	55.74338514
763.748	55.75374744
763.927	55.76305677
764.106	55.78450818
764.286	55.80494393
764.465	55.82879688
764.644	55.82453241
764.823	55.83361597
765.002	55.83935423
765.182	55.85707533
765.361	55.87775974
765.54	55.90235981
765.719	55.91555134
765.898	55.93232561
766.077	55.93930938
766.256	55.94811273
766.435	55.95068645
766.614	55.97678401
766.793	55.99412762
766.972	55.99482072
767.151	56.00421058
767.33	56.01388005
767.509	56.02539956
767.688	56.02693085
767.867	56.03424104
768.046	56.05263525
768.225	56.05119342
768.404	56.07135376
768.583	56.08752349
768.762	56.10020783
768.94	56.11760468
769.119	56.12795049
769.298	56.14141249
769.477	56.15011441
769.656	56.16274535
769.834	56.1784886
770.013	56.18388701
770.192	56.21010215
770.37	56.21477238
770.549	56.23130771
770.728	56.25063178
770.906	56.28248396
771.085	56.30206499
771.264	56.32416369
771.442	56.35386366
771.621	56.37113528
771.799	56.37307965
771.978	56.39475725
772.157	56.4075211
772.335	56.42630604
772.514	56.4422455
772.692	56.45060619
772.871	56.46767761
773.049	56.48891528
773.228	56.51072399
773.406	56.52558222
773.584	56.53721123
773.763	56.56655101
773.941	56.5750872
774.119	56.58267307
774.298	56.60775493
774.476	56.63452146
774.655	56.63554042
774.833	56.6459529
775.011	56.65517232
775.189	56.67106674
775.368	56.68971624
775.546	56.71466538
775.724	56.74180271
775.902	56.76108005
776.08	56.78307838
776.259	56.80861092
776.437	56.82388798
776.615	56.83272095
776.793	56.84599376
776.971	56.85417497
777.149	56.87472613
777.327	56.89894458
777.505	56.9112315
777.683	56.93159758
777.861	56.9613105
778.04	56.97685649
778.218	56.98067768
778.395	56.99566631
778.573	57.00893961
778.751	57.02506401
778.929	57.03903467
779.107	57.04470094
779.285	57.05433489
779.463	57.04442182
779.641	57.05555576
779.819	57.05605126
779.997	57.06607953
780.174	57.08108508
780.352	57.09660819
780.53	57.10356643
780.708	57.12400262
780.886	57.12689545
781.063	57.13459862
781.241	57.14362124
781.419	57.16264742
781.596	57.16943091
781.774	57.18846615
781.952	57.20401043
782.129	57.2098892
782.307	57.22729061
782.485	57.24357677
782.662	57.24359962
782.84	57.26713671
783.017	57.2848946
783.195	57.31099859
783.372	57.31921018
783.55	57.33161874
783.727	57.34368402
783.905	57.35722948
784.082	57.38990396
784.26	57.39649251
784.437	57.39663401
784.615	57.40937243
784.792	57.42661842
784.969	57.4550149
785.147	57.46476453
785.324	57.47601628
785.501	57.47909601
785.679	57.49627524
785.856	57.52137594
786.033	57.53153724
786.211	57.54462202
786.388	57.5699876
786.565	57.58655891
786.742	57.60493238
786.92	57.62118478
787.097	57.62659293
787.274	57.64502618
787.451	57.65697791
787.628	57.68675025
787.805	57.68205775
787.982	57.70192797
788.16	57.72271452
788.337	57.75538394
788.514	57.75543241
788.691	57.74874161
788.868	57.76266226
789.045	57.77638992
789.222	57.77984773
789.399	57.79817028
789.576	57.80678238
789.753	57.81424238
789.93	57.83117814
790.106	57.83938307
790.283	57.82673476
790.46	57.83583015
790.637	57.84896107
790.814	57.86867326
790.991	57.88252722
791.168	57.88691542
791.344	57.89448979
791.521	57.89343608
791.698	57.91250663
791.875	57.92065478
792.051	57.92220001
792.228	57.94628187
792.405	57.95754615
792.581	57.94518218
792.758	57.95539657
792.935	57.97811251
793.111	57.98223182
793.288	57.98617921
793.465	58.00545757
793.641	58.01219367
793.818	58.01626694
793.994	58.03679146
794.171	58.05753589
794.347	58.05187241
794.524	58.05855042
794.7	58.07389392
794.877	58.09147823
795.053	58.09007522
795.23	58.11386602
795.406	58.11359927
795.583	58.12251081
795.759	58.11805011
795.935	58.13110997
796.112	58.1407442
796.288	58.18549752
796.464	58.17860344
796.641	58.18591716
796.817	58.20189585
796.993	58.23540446
797.169	58.25217585
797.346	58.25295701
797.522	58.26325096
797.698	58.27547827
797.874	58.28456489
798.051	58.30163108
798.227	58.33212247
798.403	58.35034266
798.579	58.36664507
798.755	58.38008773
798.931	58.39341289
799.107	58.40174493
799.283	58.40742043
799.459	58.43058534
799.635	58.44593913
799.811	58.47753717
799.987	58.45526125
800.163	58.48325666
800.339	58.4811823
800.515	58.47850283
800.691	58.4736224
800.867	58.4747678
801.043	58.46787182
801.219	58.47158634
801.395	58.49191114
801.571	58.4816935
801.746	58.49892797
801.922	58.47837755
802.098	58.48281254
802.274	58.48602865
802.45	58.51417078
802.625	58.51430208
802.801	58.52454041
802.977	58.53656856
803.152	58.54641546
803.328	58.5477024
803.504	58.54042074
803.679	58.56807724
803.855	58.5677659
804.031	58.58050287
804.206	58.59805177
804.382	58.60798131
804.557	58.62489724
804.733	58.65855457
804.909	58.65897978
805.084	58.66211326
805.26	58.67870361
805.435	58.69661711
805.61	58.72722765
805.786	58.73222508
805.961	58.75095353
806.137	58.73357179
806.312	58.73451952
806.488	58.73197455
806.663	58.74662154
806.838	58.74939956
807.014	58.76872797
807.189	58.76851332
807.364	58.75881396
807.54	58.77876352
807.715	58.78574836
807.89	58.80068898
808.065	58.78417046
808.241	58.76900848
808.416	58.75640236
808.591	58.78509606
808.766	58.80084595
808.941	58.81821964
809.116	58.81849734
809.291	58.82370703
809.467	58.81509752
809.642	58.79152048
809.817	58.8196568
809.992	58.84216699
810.167	58.84837754
810.342	58.83959156
810.517	58.82654525
810.692	58.804785
810.867	58.83960298
811.042	58.84382688
811.217	58.84299932
811.392	58.87680619
811.567	58.8705597
811.741	58.89163985
811.916	58.91972114
812.091	58.92309086
812.266	58.92326892
812.441	58.93150436
812.616	58.94214873
812.79	58.93136437
812.965	58.94201169
813.14	58.93720914
813.315	58.96253825
813.489	58.98526391
813.664	58.98914268
813.839	59.02290226
814.013	59.02646452
814.188	59.02692074
814.363	59.03657685
814.537	59.03633293
814.712	59.06521712
814.887	59.06995356
815.061	59.07390369
815.236	59.0715942
815.41	59.08276094
815.585	59.07047713
815.759	59.11050888
815.934	59.12078111
816.108	59.11218638
816.283	59.10187336
816.457	59.1310087
816.631	59.12852901
816.806	59.15746178
816.98	59.15052263
817.155	59.09932229
817.329	59.13103137
817.503	59.12566468
817.678	59.16693928
817.852	59.19741584
818.026	59.24029463
818.201	59.2290161
818.375	59.2188444
818.549	59.22484043
818.723	59.19148593
818.897	59.20864977
819.072	59.20562986
819.246	59.23288836
819.42	59.21645891
819.594	59.22610021
819.768	59.22428572
819.942	59.23868795
820.116	59.23145221
820.29	59.24126644
820.465	59.24630286
820.639	59.2641266
820.813	59.29425998
820.987	59.2717014
821.161	59.25416024
821.335	59.26540621
821.509	59.27510456
821.682	59.27940162
821.856	59.31287094
822.03	59.333753
822.204	59.33518089
822.378	59.36950398
822.552	59.38427903
822.726	59.43839243
822.9	59.42541733
823.073	59.44284471
823.247	59.42294153
823.421	59.46096169
823.595	59.45138014
823.768	59.45902104
823.942	59.45184259
824.116	59.45401201
824.289	59.45090316
824.463	59.45056569
824.637	59.4667383
824.81	59.50117955
824.984	59.51321381
825.158	59.5102037
825.331	59.50664905
825.505	59.49976098
825.678	59.53768429
825.852	59.54237756
826.025	59.49887237
826.199	59.51032738
826.372	59.500496
826.546	59.55360083
826.719	59.53587424
826.893	59.58096616
827.066	59.54725237
827.24	59.55484683
827.413	59.57367921
827.586	59.59479665
827.76	59.57068461
827.933	59.57112459
828.106	59.56469154
828.28	59.5856905
828.453	59.59288143
828.626	59.56892378
828.799	59.57207475
828.973	59.53676445
829.146	59.5388311
829.319	59.5118043
829.492	59.52749234
829.665	59.58225401
829.839	59.57622978
830.012	59.5232417
830.185	59.50186795
830.358	59.54762289
830.531	59.54302201
830.704	59.5769007
830.877	59.58662922
831.05	59.57907332
831.223	59.60177397
831.396	59.65659213
831.569	59.70080355
831.742	59.72345956
831.915	59.73049638
832.088	59.71482419
832.261	59.74868789
832.434	59.76710169
832.607	59.77982782
832.779	59.75056917
832.952	59.70863874
833.125	59.71854391
833.298	59.69934334
833.471	59.70232803
833.643	59.75903897
833.816	59.77490794
833.989	59.75355607
834.162	59.79277248
834.334	59.78716712
834.507	59.76114438
834.68	59.74134251
834.852	59.71287722
835.025	59.71798047
835.198	59.70119505
835.37	59.7340884
835.543	59.728323
835.715	59.73941791
835.888	59.7251918
836.061	59.73142309
836.233	59.77235673
836.406	59.80914008
836.578	59.87599362
836.751	59.86437905
836.923	59.89306503
837.095	59.84554647
837.268	59.84252184
837.44	59.83516115
837.613	59.83522493
837.785	59.83509177
837.957	59.8273349
838.13	59.86943329
838.302	59.89618948
838.474	59.91682046
838.647	59.89766203
838.819	59.9153603
838.991	59.89730959
839.163	59.90102474
839.336	59.95353966
839.508	59.93966089
839.68	59.92878132
839.852	59.92184056
840.024	59.96557249
840.196	59.95530925
840.368	59.97917626
840.541	59.99790818
840.713	60.03955482
840.885	60.01367519
841.057	60.00011044
841.229	60.03660602
841.401	59.97664607
841.573	59.98378702
841.745	59.97655433
841.917	59.97210202
842.089	59.94609117
842.261	59.97139543
842.432	59.94750961
842.604	59.98996169
842.776	60.02231301
842.948	59.97644188
843.12	59.94981361
843.292	59.95077837
843.464	59.94573161
843.635	59.87824523
843.807	59.81605142
843.979	59.85588976
844.151	59.7741036
844.322	59.78636498
844.494	59.81477801
844.666	59.78515004
844.837	59.77773007
845.009	59.7530775
845.181	59.75695814
845.352	59.76613515
845.524	59.76675705
845.695	59.78400848
845.867	59.76044206
846.039	59.74795693
846.21	59.66863953
846.382	59.60514438
846.553	59.65877487
846.725	59.7195255
846.896	59.78248615
847.068	59.772106
847.239	59.77834854
847.41	59.857911
847.582	59.72374596
847.753	59.80092701
847.925	59.85722609
848.096	59.91737316
848.267	59.90977151
848.439	59.90571368
848.61	59.93714971
848.781	59.92269133
848.952	59.94976967
849.124	59.94458272
849.295	59.99734353
849.466	60.00820917
849.637	60.06430259
849.808	60.12001916
849.98	60.18360562
850.151	60.14839219
850.322	60.17909204
850.493	60.14037194
850.664	60.13076364
850.835	60.15587463
851.006	60.14674247
851.177	60.24862707
851.348	60.23514045
851.519	60.13708309
851.69	60.10836297
851.861	60.19149966
852.032	60.16574336
852.203	60.23793728
852.374	60.26356221
852.545	60.27170307
852.716	60.30737324
852.887	60.30356731
853.057	60.27568753
853.228	60.27879632
853.399	60.22862761
853.57	60.22069387
853.741	60.23734149
853.911	60.24312813
854.082	60.24102902
854.253	60.28623229
854.424	60.33770666
854.594	60.35334049
854.765	60.3085796
854.936	60.33730521
855.106	60.37165043
855.277	60.32162864
855.447	60.31826215
855.618	60.35946063
855.789	60.26602606
855.959	60.27676821
856.13	60.23042731
856.3	60.24756595
856.471	60.21296396
856.641	60.23686428
856.812	60.22238878
856.982	60.26304274
857.153	60.23904074
857.323	60.24020065
857.493	60.18641267
857.664	60.0872486
857.834	60.06264576
858.004	59.98030057
858.175	59.97503107
858.345	60.03757588
858.515	59.98772532
858.686	60.00615852
858.856	60.01475299
859.026	60.01870421
859.196	59.91641256
859.367	59.96472713
859.537	59.92095044
859.707	59.86617169
859.877	59.88762657
860.047	59.8682286
860.217	59.90322174
860.387	60.00291535
860.558	59.98131907
860.728	59.97016255
860.898	59.88489239
861.068	59.81557744
861.238	59.86822099
861.408	59.84439768
861.578	59.87498513
861.748	59.90365732
861.918	59.96499343
862.088	59.95817276
862.257	59.993113
862.427	59.93422748
862.597	59.92246671
862.767	60.01025509
862.937	59.91067345
863.107	59.88316957
863.277	59.93560848
863.446	59.82213616
863.616	59.86055313
863.786	59.76386441
863.956	59.58241904
864.125	59.67783805
864.295	59.72474598
864.465	59.72895332
864.634	59.83386338
864.804	59.8612773
864.974	59.87095952
865.143	59.90508808
865.313	59.86946036
865.482	59.80393306
865.652	59.88176232
865.822	59.78289387
865.991	59.83276484
866.161	59.82313631
866.33	59.77812049
866.5	59.82708248
866.669	59.82923777
866.838	59.82030469
867.008	59.75906725
867.177	59.78755778
867.347	59.86993568
867.516	59.96385806
867.685	59.88253927
867.855	59.78677819
868.024	59.94491774
868.193	59.94778604
868.363	59.96631533
868.532	59.91501575
868.701	60.00908801
868.87	59.86311655
869.04	59.80953088
869.209	59.70504391
869.378	59.7958966
869.547	59.857333
869.716	59.76671935
869.885	59.84556831
870.055	59.88325808
870.224	59.93900774
870.393	59.97177469
870.562	60.12047606
870.731	60.01270071
870.9	59.96045198
871.069	59.93345978
871.238	59.94411524
871.407	60.00531725
871.576	59.85969083
871.745	59.90334903
871.914	59.87073011
872.083	59.94852141
872.251	59.84456163
872.42	59.93853369
872.589	59.78686071
872.758	59.6535224
872.927	59.64025394
873.096	59.65206466
873.264	59.64613798
873.433	59.6449353
873.602	59.58945697
873.771	59.56342891
873.939	59.54327767
874.108	59.39440026
874.277	59.41979483
874.445	59.3968371
874.614	59.26620559
874.783	59.18085437
874.951	59.18707902
875.12	59.18564417
875.288	59.07742059
875.457	59.07173284
875.625	59.11688553
875.794	58.98433237
875.962	58.90659637
876.131	59.19937845
876.299	59.36431133
876.468	59.45769812
876.636	59.31717548
876.805	59.45459373
876.973	59.17672944
877.141	59.21871328
877.31	59.26266732
877.478	59.27273235
877.647	59.53232396
877.815	59.50092409
877.983	59.55229489
878.151	59.54272171
878.32	59.63714404
878.488	59.69560625
878.656	59.76992342
878.824	59.57116005
878.992	59.56976015
879.161	59.53712597
879.329	59.6399703
879.497	59.67370255
879.665	59.548688
879.833	59.56013045
880.001	59.49761852
880.169	59.53153003
880.337	59.49326431
880.505	59.74516455
880.673	59.79579989
880.841	59.68524821
881.009	59.73679657
881.177	59.41883019
881.345	59.28924321
881.513	59.07283176
881.681	59.18979376
881.849	59.04823937
882.017	58.74970364
882.185	58.80184304
882.352	59.00393307
882.52	58.99765674
882.688	58.87778704
882.856	59.02276343
883.024	59.00254304
883.191	58.99458386
883.359	59.00725121
883.527	58.73853056
883.694	58.89490836
883.862	58.89394273
884.03	58.7461021
884.197	58.63372903
884.365	58.64934278
884.533	58.58744761
884.7	58.65108527
884.868	58.70505879
885.035	58.88370291
885.203	58.64639793
885.37	58.67809578
885.538	58.84307172
885.705	58.64232338
885.873	58.59336971
886.04	58.50873466
886.208	58.48584597
886.375	58.06404756
886.542	58.18163803
886.71	58.08758686
886.877	58.00815418
