Data from claw1_Reflection_09-30-15-460.txt Node
Date: Wed Dec 06 09:30:15 AEST 2023
User: uqkchene_local
Spectrometer: USB4E02642
Trigger mode: 4
Integration Time (sec): 1.700000E-2
Scans to average: 10
Electric dark correction enabled: true
Nonlinearity correction enabled: false
Boxcar width: 10
XAxis mode: Wavelengths
Number of Pixels in Spectrum: 3648
>>>>>Begin Spectral Data<<<<<
179.217	127.61341223
179.432	118.43575419
179.647	138.5926732
179.862	224.95238095
180.077	195.1048951
180.293	224.17302799
180.508	473.53689567
180.723	-230.65326633
180.938	50.56526481
181.153	58.7431694
181.368	60.50522142
181.583	61.52126373
181.798	62.36788492
182.013	62.63064902
182.228	62.26810551
182.443	62.0304837
182.658	61.87721088
182.873	62.25373846
183.088	62.24662682
183.303	61.76106648
183.518	61.46468511
183.733	61.68925759
183.948	61.74015876
184.162	61.75658609
184.377	61.618622
184.592	61.58507794
184.807	61.56437498
185.022	61.51145404
185.237	61.77485806
185.452	61.82631159
185.667	61.69922642
185.882	61.72761959
186.096	61.71910046
186.311	61.48012473
186.526	61.37647123
186.741	61.3802146
186.956	61.40442385
187.17	61.31905615
187.385	61.33016723
187.6	61.35705069
187.815	61.5860889
188.03	61.65086434
188.244	61.53363527
188.459	61.47501819
188.674	61.67985236
188.889	61.83218713
189.103	61.88424177
189.318	61.90709863
189.533	61.85515006
189.747	61.77837242
189.962	61.77661927
190.177	61.79889442
190.391	61.70961856
190.606	61.73711136
190.821	61.8709438
191.035	61.91675304
191.25	61.94486079
191.465	61.8116984
191.679	61.86694974
191.894	61.91829996
192.109	61.92612132
192.323	61.90157362
192.538	61.97752863
192.752	61.96949912
192.967	62.01881339
193.181	61.90290528
193.396	61.88909354
193.611	61.80491944
193.825	61.85796965
194.04	61.86637289
194.254	61.83812982
194.469	61.75208056
194.683	61.82865675
194.898	61.84855484
195.112	61.82618327
195.327	61.84317404
195.541	61.75851724
195.756	61.78859076
195.97	61.9525721
196.184	62.02692978
196.399	61.92934256
196.613	61.91154459
196.828	61.75789443
197.042	61.74222999
197.257	61.72623949
197.471	61.65818204
197.685	61.6770645
197.9	61.647817
198.114	61.89094013
198.328	61.85338517
198.543	61.82271312
198.757	61.78522862
198.971	61.92428331
199.186	61.9619705
199.4	61.94930627
199.614	61.84434
199.829	61.84342101
200.043	62.03658812
200.257	62.07703199
200.471	61.99920896
200.686	62.04779261
200.9	62.09735085
201.114	62.17356117
201.328	62.29022287
201.543	62.32970932
201.757	62.35782121
201.971	62.38400798
202.185	62.38549953
202.399	62.40614502
202.614	62.14003761
202.828	62.25454197
203.042	62.35208419
203.256	62.43297003
203.47	62.3163724
203.684	62.2698771
203.899	62.3406377
204.113	62.46271387
204.327	62.40420328
204.541	62.26591384
204.755	62.28221145
204.969	62.32443908
205.183	62.20262851
205.397	62.10367129
205.611	62.01900578
205.825	62.09023317
206.039	62.12617862
206.253	62.04619896
206.467	61.99761598
206.681	62.05176945
206.895	61.98301961
207.109	62.20601742
207.323	62.16380425
207.537	62.18412985
207.751	62.08518856
207.965	62.12568585
208.179	62.22472499
208.393	62.15979784
208.607	62.09429877
208.821	62.11082136
209.035	62.18432931
209.249	62.17163006
209.463	62.13799865
209.677	62.19901713
209.891	62.29588158
210.104	62.3499167
210.318	62.21405831
210.532	62.15167097
210.746	62.23036535
210.96	62.2025375
211.174	62.18680993
211.387	62.25683093
211.601	62.11695752
211.815	62.07006534
212.029	62.12935973
212.243	62.23106381
212.456	62.33068914
212.67	62.18546074
212.884	62.09781419
213.098	62.17345992
213.311	62.06317956
213.525	62.04979426
213.739	61.96086006
213.953	62.08274947
214.166	62.04418103
214.38	61.99860385
214.594	61.91940198
214.807	62.00388975
215.021	61.80904137
215.235	61.83408875
215.448	62.01560071
215.662	61.85939029
215.876	61.91355283
216.089	61.94657406
216.303	61.90101955
216.516	61.79374303
216.73	61.75802933
216.944	61.60423257
217.157	61.61444581
217.371	61.73740578
217.584	61.73652498
217.798	61.92470802
218.011	61.88436583
218.225	61.9666639
218.439	61.98956178
218.652	61.90671181
218.866	61.91411043
219.079	62.01091858
219.293	61.97226371
219.506	62.16163008
219.719	62.10208016
219.933	61.96891092
220.146	62.00050633
220.36	61.99357299
220.573	61.90085602
220.787	62.0133218
221	62.03215085
221.214	62.05420661
221.427	62.19566025
221.64	62.11431314
221.854	62.03806236
222.067	62.0089264
222.28	61.91046424
222.494	61.91024233
222.707	61.9089172
222.92	61.74741438
223.134	61.80542941
223.347	61.91049702
223.56	61.86099538
223.774	61.86615436
223.987	61.77000045
224.2	61.73241674
224.414	61.82395607
224.627	61.79293569
224.84	61.75485744
225.053	61.80340124
225.267	61.73125564
225.48	61.79030855
225.693	61.71383201
225.906	61.65138226
226.119	61.69041495
226.333	61.66452549
226.546	61.61366753
226.759	61.81164056
226.972	61.84154134
227.185	61.71496946
227.398	61.91773263
227.612	61.8984232
227.825	61.88922341
228.038	62.00919385
228.251	62.04331515
228.464	62.17878812
228.677	62.3805674
228.89	62.41713661
229.103	62.45258202
229.316	62.45509111
229.529	62.58350323
229.743	62.58071335
229.956	62.43705882
230.169	62.62325236
230.382	62.6067887
230.595	62.7141282
230.808	62.79692967
231.021	62.83466797
231.234	62.78436105
231.447	62.84728177
231.66	63.02969215
231.872	62.93078094
232.085	62.95759719
232.298	62.83040811
232.511	62.81640541
232.724	62.83768736
232.937	62.85983089
233.15	62.69171272
233.363	62.60151991
233.576	62.7271233
233.789	62.67247208
234.002	62.51949962
234.214	62.48192585
234.427	62.53273531
234.64	62.50126612
234.853	62.6119737
235.066	62.5713214
235.279	62.47034739
235.491	62.46099169
235.704	62.14546987
235.917	62.25006285
236.13	62.22912546
236.342	62.13021035
236.555	62.11318932
236.768	62.26778125
236.981	62.18879514
237.193	62.16347819
237.406	62.00297173
237.619	62.1053547
237.832	62.1204478
238.044	62.10262125
238.257	62.03871862
238.47	61.98717099
238.682	62.12875258
238.895	62.23415537
239.108	62.02904468
239.32	61.85515765
239.533	61.78025531
239.746	61.84417694
239.958	61.67691803
240.171	61.85684394
240.383	61.77450005
240.596	61.6745566
240.808	61.67966621
241.021	61.76545786
241.234	61.73747002
241.446	61.8867782
241.659	62.05167176
241.871	62.11005687
242.084	62.10348556
242.296	62.03639054
242.509	62.03798824
242.721	62.08755961
242.934	62.19955996
243.146	62.30522716
243.359	62.30946588
243.571	62.48452406
243.784	62.5965485
243.996	62.79183122
244.208	62.89697708
244.421	63.141971
244.633	63.22145235
244.846	63.24462409
245.058	63.36992819
245.27	63.54685135
245.483	63.57567347
245.695	63.49921484
245.907	63.5836229
246.12	63.49818462
246.332	63.50368197
246.544	63.42580938
246.757	63.49746393
246.969	63.57603448
247.181	63.52448163
247.394	63.59506985
247.606	63.54117492
247.818	63.54916261
248.03	63.49179051
248.243	63.48212499
248.455	63.36040948
248.667	63.43873718
248.879	63.31930368
249.092	63.26890455
249.304	63.21523402
249.516	63.11143497
249.728	63.01849602
249.94	62.85196693
250.153	62.86199577
250.365	62.61151679
250.577	62.56115067
250.789	62.41765115
251.001	62.61305559
251.213	62.64934425
251.425	62.57860809
251.637	62.70433758
251.85	62.60471386
252.062	62.60601528
252.274	62.49614276
252.486	62.46240257
252.698	62.60002219
252.91	62.72624058
253.122	62.55387746
253.334	62.63736707
253.546	62.60670968
253.758	62.50491748
253.97	62.61438805
254.182	62.65138806
254.394	62.73595875
254.606	62.77664898
254.818	62.784354
255.03	62.85957151
255.242	62.89020164
255.454	62.7405529
255.666	63.01279994
255.877	62.98435979
256.089	63.01101586
256.301	63.19407168
256.513	63.13442515
256.725	63.3206702
256.937	63.48556722
257.149	63.48862079
257.361	63.35316535
257.572	63.41009784
257.784	63.49967326
257.996	63.56967873
258.208	63.70436751
258.42	63.6452197
258.631	63.66408618
258.843	63.76979329
259.055	63.72256274
259.267	63.87886277
259.479	63.93683628
259.69	64.04274177
259.902	64.16690379
260.114	63.83551855
260.325	63.74351805
260.537	63.76167106
260.749	63.73737354
260.961	63.74672183
261.172	63.63218673
261.384	63.48438934
261.596	63.38618787
261.807	63.50423422
262.019	63.56183227
262.23	63.46481983
262.442	63.55518348
262.654	63.59238075
262.865	63.53433878
263.077	63.44333674
263.288	63.38614715
263.5	63.410221
263.712	63.28793029
263.923	63.18465328
264.135	63.29085686
264.346	63.27826725
264.558	63.24494029
264.769	63.4508839
264.981	63.44289876
265.192	63.3787935
265.404	63.48911307
265.615	63.44099595
265.827	63.47867634
266.038	63.51922244
266.25	63.47804595
266.461	63.40373657
266.673	63.49559913
266.884	63.4841258
267.095	63.48998661
267.307	63.53931322
267.518	63.6686023
267.73	63.78657539
267.941	63.82056787
268.152	63.84886861
268.364	63.80478389
268.575	63.92187829
268.786	63.81888614
268.998	63.95268255
269.209	63.90686193
269.42	63.90864706
269.632	63.88745229
269.843	63.75397341
270.054	63.76070398
270.265	63.89314345
270.477	63.82033936
270.688	63.78478145
270.899	63.77237432
271.11	63.75550578
271.322	63.72285865
271.533	63.6579073
271.744	63.70773882
271.955	63.62968392
272.166	63.57215245
272.378	63.60053824
272.589	63.64854902
272.8	63.68768218
273.011	63.61875123
273.222	63.71621585
273.433	63.71988453
273.644	63.55765489
273.856	63.48825603
274.067	63.50444417
274.278	63.49180056
274.489	63.49727048
274.7	63.41080541
274.911	63.32994715
275.122	63.5079721
275.333	63.71655925
275.544	63.63162556
275.755	63.68710464
275.966	63.73433685
276.177	63.7855286
276.388	63.86862786
276.599	63.83848257
276.81	63.79973024
277.021	63.93957948
277.232	63.96580209
277.443	63.85231841
277.654	63.66550395
277.865	63.66269853
278.076	63.76197542
278.287	63.86850881
278.497	63.92944766
278.708	63.87065108
278.919	63.89472866
279.13	63.9005575
279.341	63.93396836
279.552	63.81035323
279.763	63.63773837
279.973	63.67821542
280.184	63.60528313
280.395	63.59322787
280.606	63.52366072
280.817	63.49562681
281.027	63.42696009
281.238	63.54290193
281.449	63.37231253
281.66	63.38989244
281.87	63.45081888
282.081	63.61404511
282.292	63.6275302
282.503	63.56407158
282.713	63.43179187
282.924	63.3630552
283.135	63.60767692
283.345	63.74484121
283.556	63.80540893
283.767	63.92801317
283.977	63.89368278
284.188	63.82788129
284.399	63.84975669
284.609	63.89254723
284.82	63.77881423
285.03	63.79564856
285.241	63.74731571
285.451	63.73552279
285.662	63.64828288
285.873	63.62229691
286.083	63.61551792
286.294	63.49652868
286.504	63.38956425
286.715	63.31514885
286.925	63.49575499
287.136	63.52266977
287.346	63.47817776
287.557	63.21411128
287.767	63.08420975
287.978	63.05876671
288.188	62.98855291
288.399	63.08579432
288.609	63.14246533
288.819	63.04760592
289.03	63.08799105
289.24	63.17641283
289.451	63.23634878
289.661	63.24755905
289.871	63.1546432
290.082	63.03659317
290.292	62.98469133
290.502	62.8707094
290.713	62.72500159
290.923	62.66185257
291.133	62.54543739
291.344	62.24753449
291.554	62.16943191
291.764	62.00436266
291.974	62.04941933
292.185	61.76917034
292.395	61.49122171
292.605	61.22473546
292.815	60.93402224
293.026	60.64486612
293.236	60.57136412
293.446	60.2376656
293.656	59.94759993
293.866	59.54302274
294.077	59.1502602
294.287	58.86494322
294.497	58.52372367
294.707	58.17280931
294.917	57.82012672
295.127	57.57646021
295.337	57.10940403
295.548	56.66846736
295.758	56.26090715
295.968	55.74203267
296.178	55.33986441
296.388	54.80510108
296.598	54.36760506
296.808	53.83520698
297.018	53.32007199
297.228	52.62217853
297.438	52.05661519
297.648	51.2714716
297.858	50.68062596
298.068	49.95391693
298.278	49.30278444
298.488	48.7474157
298.698	48.18766537
298.908	47.5033421
299.118	46.87306134
299.328	46.08524307
299.538	45.43536986
299.748	44.83864105
299.957	44.18134147
300.167	43.47694145
300.377	42.81969008
300.587	42.07050378
300.797	41.33467584
301.007	40.71647719
301.217	40.05105156
301.426	39.38133054
301.636	38.85509965
301.846	38.24721733
302.056	37.65419013
302.266	36.97842115
302.475	36.41442733
302.685	35.83178888
302.895	35.17439079
303.105	34.54363926
303.314	33.93632611
303.524	33.34675972
303.734	32.84188966
303.944	32.27156605
304.153	31.67014609
304.363	31.13021275
304.573	30.63223989
304.782	30.11308341
304.992	29.68460099
305.202	29.17642553
305.411	28.69007906
305.621	28.26237643
305.831	27.80467617
306.04	27.29979276
306.25	26.88407958
306.459	26.44058564
306.669	26.04753269
306.878	25.67999576
307.088	25.3295143
307.298	24.94384728
307.507	24.56335955
307.717	24.28101047
307.926	23.90563412
308.136	23.56498987
308.345	23.22430505
308.555	22.91591071
308.764	22.6392312
308.974	22.34151306
309.183	22.05534252
309.392	21.71470286
309.602	21.42855454
309.811	21.13327799
310.021	20.8002584
310.23	20.56594047
310.44	20.32915066
310.649	20.08325083
310.858	19.86835029
311.068	19.62697285
311.277	19.38204753
311.486	19.12448655
311.696	18.92306165
311.905	18.73127367
312.114	18.53172012
312.324	18.36526092
312.533	18.16091091
312.742	17.9711758
312.952	17.78044223
313.161	17.58184777
313.37	17.41072112
313.579	17.21411275
313.789	17.08079288
313.998	16.93299054
314.207	16.81578395
314.416	16.69182211
314.625	16.55332999
314.835	16.39967062
315.044	16.25556898
315.253	16.1208157
315.462	15.97364014
315.671	15.86973291
315.88	15.71779473
316.09	15.58524976
316.299	15.46819002
316.508	15.31695667
316.717	15.20168559
316.926	15.06953997
317.135	14.98326837
317.344	14.88578393
317.553	14.79795051
317.762	14.67226213
317.971	14.62874627
318.18	14.5461687
318.389	14.49441822
318.598	14.38844292
318.807	14.33605506
319.016	14.23071046
319.225	14.13814858
319.434	13.99854332
319.643	13.85760081
319.852	13.73861887
320.061	13.55779206
320.27	13.42363555
320.479	13.2626334
320.688	13.07871027
320.897	12.91095716
321.105	12.75013186
321.314	12.62161876
321.523	12.46887542
321.732	12.3434124
321.941	12.21236916
322.15	12.11220056
322.359	12.00751644
322.567	11.90279647
322.776	11.78324113
322.985	11.70075446
323.194	11.59785574
323.403	11.50879434
323.611	11.4401333
323.82	11.39249759
324.029	11.33921845
324.237	11.29886384
324.446	11.26403885
324.655	11.2308526
324.864	11.20113679
325.072	11.1853037
325.281	11.18529989
325.49	11.15634747
325.698	11.15197568
325.907	11.13805258
326.116	11.11502809
326.324	11.09348082
326.533	11.08376277
326.741	11.05819551
326.95	11.02926901
327.159	11.02235646
327.367	10.99149529
327.576	10.96150942
327.784	10.93222324
327.993	10.91338121
328.201	10.88112832
328.41	10.87191583
328.618	10.85332434
328.827	10.84925827
329.035	10.84866867
329.244	10.85246957
329.452	10.83983592
329.661	10.82230151
329.869	10.8123303
330.078	10.79570719
330.286	10.79727586
330.495	10.79163167
330.703	10.78338341
330.911	10.76389629
331.12	10.73403316
331.328	10.72468189
331.537	10.6828157
331.745	10.67913209
331.953	10.673574
332.162	10.66851888
332.37	10.64759245
332.578	10.62925845
332.787	10.61109744
332.995	10.59730343
333.203	10.56530188
333.411	10.53213653
333.62	10.49943554
333.828	10.46812803
334.036	10.4472698
334.244	10.4469014
334.453	10.42354502
334.661	10.38920752
334.869	10.37802487
335.077	10.37271191
335.285	10.36232695
335.494	10.36152679
335.702	10.34713521
335.91	10.34457969
336.118	10.31244784
336.326	10.29395283
336.534	10.29276452
336.742	10.27163062
336.951	10.27922616
337.159	10.25403978
337.367	10.22171529
337.575	10.22124758
337.783	10.2075804
337.991	10.18319085
338.199	10.18076656
338.407	10.17107317
338.615	10.14940819
338.823	10.14737134
339.031	10.14104373
339.239	10.13669778
339.447	10.11222393
339.655	10.09411559
339.863	10.07833051
340.071	10.07836536
340.279	10.06132015
340.487	10.05708162
340.695	10.04971672
340.903	10.02885345
341.11	10.02627576
341.318	10.00139411
341.526	10.00091681
341.734	9.99741731
341.942	9.98122756
342.15	9.97196998
342.358	9.98930101
342.565	9.97827033
342.773	9.97176002
342.981	9.97041335
343.189	9.96096524
343.397	9.9471509
343.604	9.92499184
343.812	9.92374641
344.02	9.90145797
344.228	9.88977362
344.435	9.88005333
344.643	9.8808167
344.851	9.86815911
345.058	9.85890914
345.266	9.84648847
345.474	9.81949997
345.681	9.79601185
345.889	9.78768111
346.097	9.77734567
346.304	9.76756376
346.512	9.76028364
346.72	9.73335699
346.927	9.7383894
347.135	9.72967423
347.342	9.71344914
347.55	9.7054964
347.758	9.71268231
347.965	9.70567405
348.173	9.70167171
348.38	9.72262559
348.588	9.73480706
348.795	9.72509241
349.003	9.72265422
349.21	9.71981536
349.418	9.72565454
349.625	9.73437225
349.833	9.76642637
350.04	9.7857652
350.247	9.79557685
350.455	9.79083041
350.662	9.78470156
350.87	9.79639525
351.077	9.80502433
351.284	9.79822468
351.492	9.79308869
351.699	9.79753839
351.906	9.79744331
352.114	9.79640492
352.321	9.8039333
352.528	9.79674948
352.736	9.78352969
352.943	9.76303718
353.15	9.77047267
353.358	9.76892056
353.565	9.76803673
353.772	9.7632004
353.979	9.76427805
354.187	9.74463323
354.394	9.75767485
354.601	9.74248559
354.808	9.74581727
355.015	9.74312247
355.223	9.71892443
355.43	9.70450903
355.637	9.70194457
355.844	9.67997267
356.051	9.65449418
356.258	9.64401564
356.465	9.6201361
356.673	9.60691165
356.88	9.58552723
357.087	9.58711961
357.294	9.57027932
357.501	9.53788351
357.708	9.50939742
357.915	9.47972286
358.122	9.44571736
358.329	9.40072726
358.536	9.36831118
358.743	9.32804743
358.95	9.29914243
359.157	9.27382915
359.364	9.25783251
359.571	9.24246439
359.778	9.21379976
359.985	9.19053004
360.192	9.18620115
360.399	9.16558853
360.606	9.14815689
360.812	9.11751172
361.019	9.09014383
361.226	9.07258375
361.433	9.04191054
361.64	9.01890011
361.847	9.01138655
362.054	9.00233642
362.26	8.99018939
362.467	8.96649314
362.674	8.95609078
362.881	8.94961271
363.088	8.9359134
363.294	8.9334504
363.501	8.91716516
363.708	8.89154769
363.915	8.87841398
364.121	8.88716521
364.328	8.88232028
364.535	8.86767256
364.741	8.87222875
364.948	8.86349671
365.155	8.87310596
365.361	8.86361225
365.568	8.85560392
365.775	8.85867964
365.981	8.85958162
366.188	8.84663968
366.395	8.83883598
366.601	8.84347854
366.808	8.86755105
367.014	8.87444664
367.221	8.87825398
367.427	8.87237555
367.634	8.86012537
367.84	8.86154831
368.047	8.87393215
368.254	8.87846043
368.46	8.86583365
368.667	8.8607238
368.873	8.86067096
369.079	8.85222256
369.286	8.83872043
369.492	8.83316136
369.699	8.84387327
369.905	8.85318397
370.112	8.85801812
370.318	8.85519321
370.524	8.85774495
370.731	8.86373025
370.937	8.8678156
371.144	8.84403426
371.35	8.83723728
371.556	8.82635261
371.763	8.83127002
371.969	8.83522373
372.175	8.82960846
372.381	8.81943001
372.588	8.81663345
372.794	8.81997128
373	8.81299826
373.206	8.80271437
373.413	8.80305632
373.619	8.80693902
373.825	8.80235496
374.031	8.79770199
374.238	8.79899266
374.444	8.7871022
374.65	8.78373185
374.856	8.78451775
375.062	8.78920015
375.268	8.78497226
375.475	8.79705658
375.681	8.81427482
375.887	8.83130309
376.093	8.84721438
376.299	8.84005993
376.505	8.85797064
376.711	8.87702126
376.917	8.89145505
377.123	8.90376432
377.329	8.91347427
377.535	8.92796043
377.741	8.93844578
377.947	8.94309731
378.153	8.96210582
378.359	8.96910088
378.565	8.97904031
378.771	8.99508678
378.977	9.01294755
379.183	9.01575957
379.389	9.02078481
379.595	9.0309363
379.801	9.03700394
380.007	9.02839964
380.213	9.03866338
380.418	9.0309224
380.624	9.04579107
380.83	9.04992139
381.036	9.04030146
381.242	9.01199105
381.448	9.01151016
381.653	9.00453457
381.859	9.00864849
382.065	9.00030979
382.271	8.99692373
382.476	8.98200855
382.682	8.96911251
382.888	8.95597666
383.094	8.94606905
383.299	8.93533076
383.505	8.9313312
383.711	8.92329162
383.916	8.90628938
384.122	8.89297101
384.328	8.88387916
384.533	8.86920957
384.739	8.86282972
384.945	8.85155398
385.15	8.84550953
385.356	8.84332583
385.562	8.86794158
385.767	8.85749715
385.973	8.85936736
386.178	8.85381507
386.384	8.84451035
386.589	8.85628643
386.795	8.85412161
387	8.85814944
387.206	8.85956733
387.411	8.84854569
387.617	8.85445486
387.822	8.85092123
388.028	8.84198644
388.233	8.85471139
388.439	8.86246416
388.644	8.86800394
388.85	8.8553635
389.055	8.85401022
389.26	8.84578031
389.466	8.83465546
389.671	8.82203309
389.877	8.80204324
390.082	8.78512094
390.287	8.7717287
390.493	8.76963751
390.698	8.76939701
390.903	8.74698775
391.109	8.73607549
391.314	8.71938104
391.519	8.7016451
391.724	8.68460935
391.93	8.65373437
392.135	8.63675127
392.34	8.63444576
392.545	8.60579161
392.751	8.58585136
392.956	8.55209036
393.161	8.52549252
393.366	8.49027527
393.571	8.47557518
393.776	8.4575015
393.982	8.44154656
394.187	8.4189765
394.392	8.39909957
394.597	8.37141969
394.802	8.33923238
395.007	8.31319551
395.212	8.28692121
395.417	8.27588053
395.622	8.26091184
395.827	8.24613589
396.032	8.22896583
396.237	8.20874584
396.442	8.18499398
396.647	8.15282441
396.852	8.13871408
397.057	8.1192289
397.262	8.1116835
397.467	8.10018171
397.672	8.09696031
397.877	8.08542717
398.082	8.07182292
398.287	8.05311004
398.492	8.04165813
398.697	8.04048501
398.902	8.03770974
399.107	8.03506433
399.311	8.03176926
399.516	8.03720693
399.721	8.02913127
399.926	8.02134369
400.131	8.01125088
400.336	8.0154607
400.54	8.02618208
400.745	8.0319916
400.95	8.03415696
401.155	8.03607427
401.359	8.03733206
401.564	8.03610368
401.769	8.04305931
401.974	8.04037537
402.178	8.04351084
402.383	8.04460594
402.588	8.05243399
402.792	8.05886179
402.997	8.05693781
403.202	8.06606798
403.406	8.06347168
403.611	8.06188245
403.815	8.05541776
404.02	8.04984754
404.225	8.04973887
404.429	8.05109402
404.634	8.04656445
404.838	8.03873769
405.043	8.03362721
405.247	8.02457191
405.452	8.01318186
405.656	8.01917419
405.861	8.02954318
406.065	8.03556578
406.27	8.0321745
406.474	8.02374047
406.679	8.0276722
406.883	8.02942137
407.088	8.02744913
407.292	8.02452229
407.497	8.01839176
407.701	8.01620253
407.905	8.01897101
408.11	8.02343028
408.314	8.02611644
408.518	8.0329185
408.723	8.03804318
408.927	8.04238275
409.131	8.0555047
409.336	8.05452932
409.54	8.06547098
409.744	8.07150238
409.949	8.07135855
410.153	8.06553161
410.357	8.05724626
410.561	8.06269015
410.766	8.07011343
410.97	8.06414578
411.174	8.06419896
411.378	8.06571957
411.582	8.07165179
411.787	8.06908539
411.991	8.07523473
412.195	8.07456212
412.399	8.08484301
412.603	8.08684494
412.807	8.09313072
413.011	8.08887776
413.215	8.08218789
413.419	8.07133668
413.624	8.08493401
413.828	8.09503
414.032	8.09757199
414.236	8.09314423
414.44	8.10249666
414.644	8.10752756
414.848	8.11442604
415.052	8.12487309
415.256	8.12975448
415.46	8.13444173
415.664	8.14287677
415.868	8.14371433
416.072	8.16131468
416.275	8.17409879
416.479	8.18537496
416.683	8.18003672
416.887	8.17989271
417.091	8.17725503
417.295	8.18900087
417.499	8.20544489
417.703	8.2148009
417.906	8.21304102
418.11	8.21108333
418.314	8.22217265
418.518	8.24269811
418.722	8.25185693
418.925	8.26113198
419.129	8.26236253
419.333	8.26612614
419.537	8.27396887
419.74	8.28393247
419.944	8.29121908
420.148	8.30096209
420.352	8.29837958
420.555	8.29719398
420.759	8.30704467
420.963	8.3172138
421.166	8.32193152
421.37	8.3264072
421.573	8.3300751
421.777	8.33471893
421.981	8.34016344
422.184	8.35526289
422.388	8.3692292
422.591	8.37704629
422.795	8.37796609
422.999	8.38318333
423.202	8.39280644
423.406	8.41220459
423.609	8.41276537
423.813	8.42574971
424.016	8.42791419
424.22	8.42903652
424.423	8.4351795
424.627	8.44603114
424.83	8.454867
425.033	8.45333007
425.237	8.46672519
425.44	8.47668816
425.644	8.48646237
425.847	8.49144252
426.05	8.49269972
426.254	8.49489243
426.457	8.488249
426.66	8.48726334
426.864	8.49392011
427.067	8.496309
427.27	8.48991545
427.474	8.47805119
427.677	8.46545113
427.88	8.46785937
428.084	8.47116931
428.287	8.46944186
428.49	8.47055059
428.693	8.46810791
428.896	8.46154057
429.1	8.46074606
429.303	8.46075637
429.506	8.44853188
429.709	8.45323829
429.912	8.45519752
430.116	8.45256129
430.319	8.45623445
430.522	8.46045626
430.725	8.45597134
430.928	8.45513837
431.131	8.44887245
431.334	8.44257343
431.537	8.44106272
431.74	8.44803926
431.943	8.45203922
432.146	8.454375
432.349	8.45005907
432.552	8.45817173
432.755	8.45602542
432.958	8.45757262
433.161	8.45455331
433.364	8.456488
433.567	8.45587669
433.77	8.45131949
433.973	8.44922699
434.176	8.44945671
434.379	8.46072494
434.582	8.45991484
434.785	8.45847284
434.988	8.46381447
435.19	8.46840693
435.393	8.4654589
435.596	8.46303188
435.799	8.47006769
436.002	8.47333513
436.205	8.4803137
436.407	8.47763201
436.61	8.47661677
436.813	8.47407425
437.016	8.48361454
437.218	8.48698795
437.421	8.49173172
437.624	8.48865896
437.827	8.50431353
438.029	8.5205028
438.232	8.52196945
438.435	8.5245697
438.637	8.52136808
438.84	8.5229093
439.043	8.53249086
439.245	8.535289
439.448	8.53828508
439.65	8.54617814
439.853	8.55276765
440.056	8.5518951
440.258	8.55993558
440.461	8.55806204
440.663	8.56650814
440.866	8.56927553
441.068	8.58189979
441.271	8.57987025
441.473	8.58117854
441.676	8.58798111
441.878	8.59449877
442.081	8.5877931
442.283	8.57934639
442.486	8.594608
442.688	8.59806081
442.89	8.60378618
443.093	8.60370594
443.295	8.60608173
443.498	8.60778739
443.7	8.61137465
443.902	8.61645099
444.105	8.61962331
444.307	8.62506445
444.509	8.63008884
444.712	8.63411624
444.914	8.64157997
445.116	8.65325114
445.319	8.65416359
445.521	8.66601671
445.723	8.67612726
445.925	8.69455523
446.128	8.70058237
446.33	8.71147028
446.532	8.72124344
446.734	8.71576199
446.936	8.72447185
447.139	8.72718028
447.341	8.72998991
447.543	8.7343458
447.745	8.7501926
447.947	8.75492707
448.149	8.76540374
448.351	8.76963704
448.553	8.77463332
448.755	8.77888584
448.958	8.78512572
449.16	8.7879425
449.362	8.78930741
449.564	8.79856747
449.766	8.79373663
449.968	8.79589253
450.17	8.78840175
450.372	8.79941831
450.574	8.79491595
450.776	8.80696682
450.978	8.8168537
451.179	8.81152554
451.381	8.82153938
451.583	8.83541038
451.785	8.84110325
451.987	8.84355576
452.189	8.84351492
452.391	8.83943323
452.593	8.84276837
452.795	8.84617472
452.996	8.84615141
453.198	8.85175534
453.4	8.85555904
453.602	8.86345584
453.804	8.85282149
454.005	8.86202528
454.207	8.86695165
454.409	8.86903597
454.611	8.86847621
454.812	8.88176029
455.014	8.8837321
455.216	8.88668037
455.417	8.89336182
455.619	8.89283432
455.821	8.89763853
456.022	8.89960651
456.224	8.90073475
456.426	8.90580341
456.627	8.90994048
456.829	8.92778899
457.031	8.93699228
457.232	8.94042184
457.434	8.94813545
457.635	8.94950874
457.837	8.94857627
458.038	8.95636774
458.24	8.95929431
458.441	8.96427535
458.643	8.96853791
458.844	8.98209359
459.046	8.98326885
459.247	8.98665839
459.449	8.9875968
459.65	8.98965578
459.852	8.99453562
460.053	8.99746442
460.254	8.9978266
460.456	9.00472337
460.657	9.0123411
460.859	9.02301299
461.06	9.01898352
461.261	9.03394661
461.463	9.04092944
461.664	9.04482727
461.865	9.05729845
462.066	9.06936987
462.268	9.08042865
462.469	9.09198301
462.67	9.09764601
462.872	9.10428502
463.073	9.09954559
463.274	9.10791322
463.475	9.10547228
463.676	9.11548751
463.878	9.12735375
464.079	9.13750818
464.28	9.14138728
464.481	9.15552515
464.682	9.15967333
464.883	9.1572891
465.085	9.15688104
465.286	9.15861058
465.487	9.14467049
465.688	9.14894729
465.889	9.15334737
466.09	9.15248129
466.291	9.15458048
466.492	9.15843884
466.693	9.15366168
466.894	9.16214768
467.095	9.1754458
467.296	9.17457513
467.497	9.17133092
467.698	9.1822343
467.899	9.18848986
468.1	9.18490081
468.301	9.18827249
468.502	9.19328732
468.703	9.19017025
468.903	9.19133574
469.104	9.20135275
469.305	9.20999657
469.506	9.21045822
469.707	9.21919512
469.908	9.22146253
470.109	9.21828415
470.309	9.22052766
470.51	9.22215178
470.711	9.22151274
470.912	9.22813802
471.112	9.22968476
471.313	9.22934516
471.514	9.2423701
471.715	9.24684451
471.915	9.24901033
472.116	9.24555209
472.317	9.25426701
472.517	9.25696642
472.718	9.26252075
472.919	9.27277345
473.119	9.27819657
473.32	9.28056403
473.521	9.29073813
473.721	9.30121212
473.922	9.31352341
474.122	9.31945999
474.323	9.32769758
474.523	9.33653687
474.724	9.33986283
474.925	9.3551651
475.125	9.36345882
475.326	9.3675095
475.526	9.3706613
475.727	9.3736712
475.927	9.38345445
476.127	9.38994826
476.328	9.40162645
476.528	9.40624201
476.729	9.4148499
476.929	9.42571227
477.13	9.43061829
477.33	9.44229881
477.53	9.45473121
477.731	9.45483613
477.931	9.45864582
478.131	9.46581198
478.332	9.47572515
478.532	9.48617068
478.732	9.49390577
478.933	9.5038951
479.133	9.51146414
479.333	9.51751879
479.533	9.53123276
479.734	9.54615787
479.934	9.55058582
480.134	9.55828416
480.334	9.567685
480.534	9.57359718
480.735	9.58693097
480.935	9.59117115
481.135	9.59174682
481.335	9.60150151
481.535	9.60918929
481.735	9.61536282
481.935	9.62474046
482.136	9.63921978
482.336	9.63975951
482.536	9.65141297
482.736	9.6531628
482.936	9.65853383
483.136	9.66446922
483.336	9.66763564
483.536	9.6721202
483.736	9.67437429
483.936	9.67830805
484.136	9.68779003
484.336	9.69902574
484.536	9.70842066
484.736	9.71417796
484.936	9.71642602
485.135	9.72470025
485.335	9.73400819
485.535	9.74068744
485.735	9.74676765
485.935	9.75338063
486.135	9.76027592
486.335	9.76394291
486.534	9.77545138
486.734	9.77724856
486.934	9.79510512
487.134	9.80715617
487.334	9.81584744
487.533	9.82277389
487.733	9.83929133
487.933	9.85074806
488.133	9.86259535
488.332	9.87309277
488.532	9.87517578
488.732	9.88222599
488.931	9.89300023
489.131	9.90244186
489.331	9.91518878
489.53	9.9248464
489.73	9.93236474
489.93	9.94207923
490.129	9.95370372
490.329	9.96181053
490.528	9.97621041
490.728	9.98365759
490.928	9.99591238
491.127	10.00635511
491.327	10.0145413
491.526	10.02450419
491.726	10.03148263
491.925	10.03771742
492.125	10.03970292
492.324	10.0442057
492.524	10.05328429
492.723	10.06974967
492.922	10.07854546
493.122	10.09112448
493.321	10.10247608
493.521	10.10798445
493.72	10.1210431
493.919	10.13237076
494.119	10.14188214
494.318	10.14978723
494.517	10.16099557
494.717	10.16690298
494.916	10.17735455
495.115	10.18517468
495.315	10.18972971
495.514	10.19849909
495.713	10.20815714
495.912	10.21717046
496.112	10.22473118
496.311	10.24127255
496.51	10.24983812
496.709	10.26492182
496.908	10.26706793
497.108	10.2789602
497.307	10.28559097
497.506	10.29357727
497.705	10.30367689
497.904	10.30692731
498.103	10.31448841
498.302	10.32103958
498.501	10.32914102
498.701	10.33625245
498.9	10.350435
499.099	10.36023238
499.298	10.36476827
499.497	10.37331316
499.696	10.38288128
499.895	10.39812567
500.094	10.41392756
500.293	10.42663926
500.492	10.4333374
500.691	10.44120753
500.89	10.44249869
501.088	10.45627317
501.287	10.46643115
501.486	10.48133161
501.685	10.49173913
501.884	10.50380162
502.083	10.52017883
502.282	10.53222904
502.481	10.54527326
502.679	10.56149387
502.878	10.57532839
503.077	10.58442551
503.276	10.59311021
503.475	10.61786535
503.673	10.63598626
503.872	10.65036279
504.071	10.65940828
504.27	10.67261211
504.468	10.68483963
504.667	10.7014099
504.866	10.72329001
505.064	10.7394847
505.263	10.7523718
505.462	10.76632206
505.66	10.78150778
505.859	10.80169269
506.058	10.81736524
506.256	10.83275575
506.455	10.8527133
506.653	10.86864019
506.852	10.88517499
507.05	10.89829881
507.249	10.91001163
507.448	10.93167009
507.646	10.94333769
507.845	10.96065111
508.043	10.97727888
508.242	10.99585327
508.44	11.01405946
508.638	11.03113193
508.837	11.04858326
509.035	11.06329018
509.234	11.083257
509.432	11.10181877
509.631	11.11828158
509.829	11.13466312
510.027	11.15728951
510.226	11.17014468
510.424	11.18563212
510.622	11.19855408
510.821	11.21751053
511.019	11.22536652
511.217	11.25203449
511.415	11.27044787
511.614	11.28853538
511.812	11.30881784
512.01	11.32153877
512.208	11.33536871
512.407	11.34890955
512.605	11.36333277
512.803	11.38066539
513.001	11.39510876
513.199	11.41511397
513.398	11.43565045
513.596	11.45470879
513.794	11.48023035
513.992	11.49903483
514.19	11.51159953
514.388	11.53351524
514.586	11.55692548
514.784	11.58064669
514.982	11.60501005
515.18	11.63306862
515.378	11.64894545
515.576	11.67112262
515.774	11.68685244
515.972	11.70520465
516.17	11.72555182
516.368	11.7471948
516.566	11.77252405
516.764	11.79798614
516.962	11.81921742
517.16	11.84622433
517.358	11.87040743
517.556	11.88527407
517.754	11.91218323
517.952	11.92937713
518.149	11.95071763
518.347	11.97291349
518.545	11.9959495
518.743	12.01667185
518.941	12.03538459
519.138	12.05484767
519.336	12.07523974
519.534	12.10360788
519.732	12.12503446
519.929	12.14742035
520.127	12.17170607
520.325	12.19246318
520.523	12.21829099
520.72	12.23873377
520.918	12.25817786
521.116	12.28760938
521.313	12.31003442
521.511	12.32697451
521.709	12.35479699
521.906	12.37520346
522.104	12.39965787
522.301	12.42133416
522.499	12.44943881
522.696	12.46980746
522.894	12.48767351
523.092	12.50802937
523.289	12.52954579
523.487	12.55518197
523.684	12.56808124
523.882	12.59114322
524.079	12.61824385
524.276	12.63685775
524.474	12.6576773
524.671	12.67894358
524.869	12.70103083
525.066	12.72299437
525.264	12.73988377
525.461	12.76299436
525.658	12.7883773
525.856	12.8107451
526.053	12.83265026
526.25	12.8566218
526.448	12.88250201
526.645	12.8957571
526.842	12.92396621
527.039	12.94901664
527.237	12.97839182
527.434	13.00000804
527.631	13.03185673
527.828	13.05707808
528.026	13.0801392
528.223	13.09761857
528.42	13.12185006
528.617	13.15030691
528.814	13.17649285
529.012	13.20166036
529.209	13.22639646
529.406	13.24866703
529.603	13.26803766
529.8	13.28607046
529.997	13.31093439
530.194	13.33742889
530.391	13.3608729
530.588	13.38427006
530.785	13.41031259
530.982	13.43256647
531.179	13.45793629
531.376	13.47545422
531.573	13.5051118
531.77	13.52314691
531.967	13.54936307
532.164	13.57785455
532.361	13.61433312
532.558	13.63708696
532.755	13.65893706
532.952	13.68119662
533.149	13.70533389
533.346	13.7309188
533.543	13.75808672
533.739	13.78909246
533.936	13.81382285
534.133	13.83674598
534.33	13.85626694
534.527	13.87471983
534.723	13.89910032
534.92	13.91901158
535.117	13.94372374
535.314	13.9662727
535.51	13.99285515
535.707	14.0121867
535.904	14.02602911
536.1	14.05404597
536.297	14.07632665
536.494	14.08787036
536.69	14.1149049
536.887	14.13692705
537.084	14.15943156
537.28	14.181721
537.477	14.20637281
537.674	14.23023706
537.87	14.24850621
538.067	14.27631289
538.263	14.29438572
538.46	14.32369088
538.656	14.34610265
538.853	14.36709666
539.049	14.39751646
539.246	14.41636545
539.442	14.44136638
539.639	14.46160406
539.835	14.4810083
540.032	14.50739732
540.228	14.5286863
540.424	14.5460245
540.621	14.5761582
540.817	14.6005163
541.014	14.62888203
541.21	14.65098496
541.406	14.67894731
541.603	14.69842875
541.799	14.72714178
541.995	14.74908811
542.191	14.77605877
542.388	14.80549857
542.584	14.82754952
542.78	14.84929589
542.976	14.87290603
543.173	14.8979064
543.369	14.92418894
543.565	14.94608941
543.761	14.97561049
543.957	15.00658113
544.154	15.03651462
544.35	15.05680956
544.546	15.08670676
544.742	15.10737241
544.938	15.12319336
545.134	15.14872854
545.33	15.17843262
545.526	15.19171849
545.722	15.21489286
545.919	15.23672096
546.115	15.26074685
546.311	15.27858762
546.507	15.29899687
546.703	15.31677698
546.899	15.34175021
547.095	15.36456919
547.29	15.38079398
547.486	15.403972
547.682	15.42994674
547.878	15.44873144
548.074	15.46499556
548.27	15.48614143
548.466	15.5133862
548.662	15.5413229
548.858	15.56675903
549.053	15.59325176
549.249	15.61510071
549.445	15.62777317
549.641	15.65412025
549.837	15.68005026
550.032	15.69963977
550.228	15.72628253
550.424	15.75005274
550.62	15.77378862
550.815	15.79097478
551.011	15.8148843
551.207	15.83310503
551.402	15.86201042
551.598	15.88560239
551.794	15.90167935
551.989	15.92646362
552.185	15.95141602
552.381	15.96406518
552.576	15.9782594
552.772	15.99177132
552.967	16.00364166
553.163	16.02420273
553.359	16.04705687
553.554	16.07304638
553.75	16.09968052
553.945	16.11997686
554.141	16.14130594
554.336	16.15877107
554.532	16.17519144
554.727	16.19252474
554.922	16.22197378
555.118	16.24195572
555.313	16.26139674
555.509	16.27617392
555.704	16.2959221
555.899	16.31533156
556.095	16.33185422
556.29	16.35184206
556.486	16.38071147
556.681	16.40404513
556.876	16.42627639
557.071	16.44837866
557.267	16.47033103
557.462	16.48524326
557.657	16.5087862
557.853	16.5210378
558.048	16.54337528
558.243	16.5599404
558.438	16.5767326
558.633	16.60255231
558.829	16.63269945
559.024	16.64929067
559.219	16.67400681
559.414	16.69227572
559.609	16.70570259
559.804	16.72407846
559.999	16.74086723
560.194	16.75360318
560.39	16.76746745
560.585	16.78762158
560.78	16.80174787
560.975	16.81822319
561.17	16.83448608
561.365	16.85163242
561.56	16.87353367
561.755	16.88475208
561.95	16.91112423
562.145	16.92690302
562.34	16.93922642
562.535	16.95599229
562.729	16.97348353
562.924	16.98194727
563.119	17.00230329
563.314	17.01759195
563.509	17.03275426
563.704	17.06401219
563.899	17.08731127
564.093	17.10525561
564.288	17.13688975
564.483	17.16050636
564.678	17.16933778
564.873	17.19470529
565.067	17.21440506
565.262	17.23707149
565.457	17.25740568
565.652	17.26909333
565.846	17.28877701
566.041	17.30008305
566.236	17.31993227
566.43	17.34382855
566.625	17.36674557
566.82	17.36998066
567.014	17.38483807
567.209	17.40543009
567.404	17.42173836
567.598	17.44951092
567.793	17.45697606
567.987	17.46897971
568.182	17.48720358
568.376	17.50507539
568.571	17.52089903
568.765	17.54118047
568.96	17.54845896
569.154	17.56321873
569.349	17.58128677
569.543	17.59288907
569.738	17.60720298
569.932	17.61920731
570.127	17.64114087
570.321	17.64983541
570.515	17.66967861
570.71	17.6710745
570.904	17.69737841
571.098	17.72104031
571.293	17.72933732
571.487	17.74595886
571.681	17.76049947
571.876	17.77691634
572.07	17.79070574
572.264	17.8211088
572.458	17.82700557
572.653	17.83900531
572.847	17.86062421
573.041	17.88430258
573.235	17.89868789
573.43	17.91966044
573.624	17.94175268
573.818	17.96133766
574.012	17.98519965
574.206	17.99712698
574.4	18.0179072
574.594	18.02915794
574.788	18.06638394
574.983	18.08943021
575.177	18.11201262
575.371	18.13652417
575.565	18.1574186
575.759	18.17192584
575.953	18.19002132
576.147	18.20776587
576.341	18.22236165
576.535	18.24609411
576.729	18.263556
576.923	18.27843168
577.117	18.28923622
577.31	18.31710096
577.504	18.33186438
577.698	18.34953374
577.892	18.3724644
578.086	18.38442223
578.28	18.40439918
578.474	18.42014286
578.668	18.43716189
578.861	18.45354998
579.055	18.47342963
579.249	18.47925981
579.443	18.49264008
579.636	18.50428203
579.83	18.52206427
580.024	18.54301416
580.218	18.56162001
580.411	18.57552787
580.605	18.59228088
580.799	18.61895426
580.992	18.63822457
581.186	18.66788835
581.38	18.67542495
581.573	18.69176141
581.767	18.7071384
581.961	18.72137174
582.154	18.74414875
582.348	18.75408863
582.541	18.77341949
582.735	18.78280654
582.928	18.79122851
583.122	18.79222798
583.315	18.80320279
583.509	18.81539224
583.702	18.83149737
583.896	18.84853843
584.089	18.86542889
584.283	18.87851937
584.476	18.88890201
584.67	18.89953164
584.863	18.90080046
585.056	18.91130804
585.25	18.9168077
585.443	18.93445649
585.636	18.94820786
585.83	18.965194
586.023	18.97732334
586.216	18.9933362
586.41	19.02399488
586.603	19.03930291
586.796	19.06831608
586.989	19.08640839
587.183	19.10530621
587.376	19.12375129
587.569	19.14354596
587.762	19.17164406
587.955	19.1868837
588.149	19.2015027
588.342	19.22130916
588.535	19.23781113
588.728	19.26051875
588.921	19.28966496
589.114	19.30935274
589.307	19.33176483
589.5	19.34867961
589.693	19.36348649
589.886	19.37934099
590.08	19.39874279
590.273	19.41810944
590.466	19.42913431
590.659	19.44909609
590.852	19.46593544
591.044	19.48514545
591.237	19.51734525
591.43	19.54599535
591.623	19.57422227
591.816	19.58291968
592.009	19.60315294
592.202	19.63026698
592.395	19.64642725
592.588	19.66649705
592.781	19.68937952
592.973	19.70093366
593.166	19.72993688
593.359	19.75634836
593.552	19.78496587
593.745	19.81168021
593.937	19.83127863
594.13	19.85453428
594.323	19.88192483
594.515	19.90931517
594.708	19.934385
594.901	19.95630044
595.094	19.97783703
595.286	20.00172624
595.479	20.02527157
595.672	20.04633054
595.864	20.07773542
596.057	20.10587157
596.249	20.12677439
596.442	20.15567812
596.635	20.1779415
596.827	20.20295864
597.02	20.22884838
597.212	20.24562019
597.405	20.25697928
597.597	20.28824776
597.79	20.30597047
597.982	20.32586381
598.175	20.35068741
598.367	20.37380875
598.559	20.39539431
598.752	20.40556595
598.944	20.4288424
599.137	20.4553987
599.329	20.48143033
599.521	20.51097747
599.714	20.53153455
599.906	20.54830371
600.098	20.57288864
600.291	20.58190294
600.483	20.60315006
600.675	20.63705468
600.868	20.64870864
601.06	20.67529105
601.252	20.69925915
601.444	20.72244817
601.637	20.73274435
601.829	20.75707348
602.021	20.78972161
602.213	20.82343635
602.405	20.83768266
602.597	20.85517531
602.789	20.87770085
602.982	20.898823
603.174	20.91718985
603.366	20.92094544
603.558	20.93135395
603.75	20.94611088
603.942	20.95595681
604.134	20.96464895
604.326	20.99805906
604.518	21.01897573
604.71	21.0318373
604.902	21.05014253
605.094	21.07186358
605.286	21.08679832
605.478	21.10275422
605.67	21.11127024
605.862	21.12870743
606.054	21.13616252
606.246	21.13680259
606.437	21.15254007
606.629	21.1613821
606.821	21.18100398
607.013	21.18454066
607.205	21.19172918
607.397	21.20498889
607.588	21.2237205
607.78	21.23168966
607.972	21.25202506
608.164	21.26244476
608.355	21.27317821
608.547	21.27619203
608.739	21.28247488
608.93	21.29847301
609.122	21.29867442
609.314	21.3144773
609.505	21.32088031
609.697	21.34030213
609.889	21.35593904
610.08	21.36571123
610.272	21.38166178
610.463	21.3887182
610.655	21.39874416
610.847	21.40491385
611.038	21.42287481
611.23	21.44040172
611.421	21.45243943
611.613	21.44716936
611.804	21.46266041
611.996	21.48093741
612.187	21.50323834
612.379	21.51538998
612.57	21.53962152
612.761	21.56187902
612.953	21.56752796
613.144	21.58536746
613.336	21.5913379
613.527	21.62640482
613.718	21.64277857
613.91	21.66148975
614.101	21.67592014
614.292	21.68744383
614.483	21.71124061
614.675	21.72845059
614.866	21.74435644
615.057	21.75488916
615.248	21.75837535
615.44	21.77298089
615.631	21.80141175
615.822	21.81485603
616.013	21.82186388
616.204	21.82732365
616.396	21.83583867
616.587	21.83529821
616.778	21.84338425
616.969	21.85423325
617.16	21.86587459
617.351	21.88553255
617.542	21.89404509
617.733	21.89926749
617.924	21.90612418
618.115	21.91986178
618.306	21.93162778
618.497	21.92782112
618.688	21.93826253
618.879	21.95012552
619.07	21.96889604
619.261	21.99062147
619.452	22.00212067
619.643	21.99714755
619.834	22.01023814
620.025	22.02497609
620.216	22.0413032
620.407	22.05031778
620.597	22.0616524
620.788	22.0640248
620.979	22.08471763
621.17	22.09373385
621.361	22.0906963
621.551	22.0874556
621.742	22.09669767
621.933	22.11399256
622.124	22.10623792
622.314	22.09806371
622.505	22.1145066
622.696	22.12214568
622.886	22.14175442
623.077	22.14015455
623.268	22.15759499
623.458	22.17069687
623.649	22.17938234
623.84	22.18893897
624.03	22.19428073
624.221	22.21613766
624.411	22.23085061
624.602	22.24748485
624.792	22.25457073
624.983	22.26894236
625.173	22.27080705
625.364	22.29392547
625.554	22.30028747
625.745	22.31494517
625.935	22.30800427
626.126	22.33118705
626.316	22.35211687
626.507	22.36319495
626.697	22.38604866
626.887	22.39199373
627.078	22.41384574
627.268	22.40459109
627.458	22.42077254
627.649	22.44452475
627.839	22.44896514
628.029	22.4553532
628.22	22.44504967
628.41	22.45633898
628.6	22.45343274
628.79	22.46698104
628.981	22.4689997
629.171	22.48854557
629.361	22.49629885
629.551	22.50843879
629.741	22.51938246
629.932	22.5361621
630.122	22.56201398
630.312	22.5789989
630.502	22.58189463
630.692	22.57995568
630.882	22.57566049
631.072	22.57790846
631.262	22.60020055
631.452	22.60464142
631.642	22.60553972
631.832	22.61368549
632.022	22.61586919
632.212	22.63761249
632.402	22.62726863
632.592	22.6553368
632.782	22.66101603
632.972	22.67321433
633.162	22.68549989
633.352	22.68721678
633.542	22.69438648
633.732	22.6993679
633.922	22.69126654
634.111	22.68738169
634.301	22.70211098
634.491	22.71869003
634.681	22.73036643
634.871	22.75293412
635.06	22.76579606
635.25	22.76301728
635.44	22.77242097
635.63	22.77955519
635.819	22.79871796
636.009	22.81765047
636.199	22.80832094
636.388	22.83161888
636.578	22.8221173
636.768	22.83500172
636.957	22.83143984
637.147	22.83781235
637.337	22.83624217
637.526	22.84570859
637.716	22.85851232
637.905	22.87716161
638.095	22.88275669
638.284	22.87236607
638.474	22.87505337
638.663	22.8690552
638.853	22.85992887
639.042	22.86458054
639.232	22.88783154
639.421	22.88971465
639.611	22.89648058
639.8	22.88964734
639.99	22.8895742
640.179	22.90698309
640.368	22.91393023
640.558	22.93567917
640.747	22.93359491
640.936	22.95121678
641.126	22.95344523
641.315	22.97352282
641.504	22.97192825
641.694	22.95966089
641.883	22.96657316
642.072	22.95570217
642.261	22.9668727
642.451	22.9530144
642.64	22.97768343
642.829	22.99079814
643.018	22.9986552
643.207	22.99699067
643.397	22.98525835
643.586	22.98819001
643.775	22.9999431
643.964	23.00127612
644.153	23.00557729
644.342	23.00541177
644.531	23.01246716
644.72	23.03167766
644.909	23.01699653
645.098	23.02167997
645.287	23.01430871
645.476	23.02937807
645.665	23.04306434
645.854	23.04415179
646.043	23.06283243
646.232	23.05562768
646.421	23.07160627
646.61	23.06641308
646.799	23.08110381
646.988	23.06723188
647.177	23.06185683
647.365	23.08118832
647.554	23.09280527
647.743	23.09063177
647.932	23.09494421
648.121	23.0941473
648.309	23.10498354
648.498	23.11643435
648.687	23.11300176
648.876	23.14234905
649.064	23.14285871
649.253	23.15297494
649.442	23.16625841
649.63	23.15805639
649.819	23.15769821
650.008	23.16118273
650.196	23.185849
650.385	23.19333447
650.574	23.19919565
650.762	23.20012128
650.951	23.23492952
651.139	23.24431565
651.328	23.2333162
651.516	23.24211636
651.705	23.25836448
651.893	23.27103984
652.082	23.28385647
652.27	23.28671576
652.459	23.29239452
652.647	23.31201364
652.836	23.30437667
653.024	23.31846636
653.213	23.33476193
653.401	23.32954394
653.589	23.34464925
653.778	23.38166365
653.966	23.40486719
654.154	23.40851918
654.343	23.44087828
654.531	23.46001658
654.719	23.46324163
654.908	23.45676051
655.096	23.46849291
655.284	23.48770147
655.472	23.50460175
655.661	23.51395012
655.849	23.52914107
656.037	23.54900344
656.225	23.56182099
656.413	23.55910952
656.601	23.57662166
656.79	23.60020909
656.978	23.61349457
657.166	23.61478371
657.354	23.62723381
657.542	23.65360552
657.73	23.6518193
657.918	23.66198873
658.106	23.66635665
658.294	23.65674601
658.482	23.65092402
658.67	23.6591933
658.858	23.67776667
659.046	23.69387696
659.234	23.70077979
659.422	23.71185461
659.61	23.70687602
659.798	23.7098181
659.986	23.70066348
660.173	23.70261441
660.361	23.69783937
660.549	23.69122788
660.737	23.7009829
660.925	23.69816289
661.113	23.70813743
661.3	23.71351268
661.488	23.71027078
661.676	23.71141311
661.864	23.70893676
662.051	23.71201143
662.239	23.72235624
662.427	23.73860429
662.614	23.75444098
662.802	23.74441658
662.99	23.73952221
663.177	23.74614752
663.365	23.74398124
663.553	23.76104157
663.74	23.77583776
663.928	23.77924552
664.115	23.80184634
664.303	23.82412819
664.49	23.81155283
664.678	23.82251666
664.866	23.84193592
665.053	23.83665097
665.24	23.86253458
665.428	23.86065453
665.615	23.85452881
665.803	23.86544095
665.99	23.86053936
666.178	23.85882487
666.365	23.84612436
666.552	23.85744785
666.74	23.87729594
666.927	23.88267022
667.114	23.91062528
667.302	23.91788141
667.489	23.93806599
667.676	23.92612227
667.864	23.93009017
668.051	23.90770543
668.238	23.90183261
668.425	23.91838099
668.613	23.91353577
668.8	23.92041109
668.987	23.92935585
669.174	23.92517839
669.361	23.94021418
669.548	23.95433419
669.736	23.96043856
669.923	23.98904848
670.11	23.99708852
670.297	24.01791894
670.484	24.00597096
670.671	24.01230099
670.858	24.0236417
671.045	24.02096779
671.232	24.0247198
671.419	24.01942613
671.606	24.03483468
671.793	24.05097658
671.98	24.07213494
672.167	24.08765369
672.354	24.11915076
672.541	24.12812205
672.728	24.12570797
672.915	24.14163411
673.101	24.13742209
673.288	24.15967394
673.475	24.17534941
673.662	24.19137486
673.849	24.18855175
674.035	24.19968796
674.222	24.20854432
674.409	24.23771878
674.596	24.24642361
674.783	24.26196714
674.969	24.27934006
675.156	24.28805296
675.343	24.28049419
675.529	24.30048287
675.716	24.31572417
675.903	24.33143855
676.089	24.35410501
676.276	24.35006777
676.462	24.35732937
676.649	24.38371957
676.836	24.39919741
677.022	24.438233
677.209	24.43982494
677.395	24.45197511
677.582	24.45900421
677.768	24.50063003
677.955	24.51640813
678.141	24.53405434
678.328	24.55553132
678.514	24.56274179
678.701	24.57421608
678.887	24.58084996
679.073	24.60018601
679.26	24.64526056
679.446	24.66839703
679.632	24.70225982
679.819	24.73548006
680.005	24.74467362
680.191	24.77471001
680.378	24.79703667
680.564	24.81128142
680.75	24.83595327
680.936	24.84376005
681.123	24.87495803
681.309	24.90188265
681.495	24.92818398
681.681	24.94064597
681.867	24.9764781
682.054	25.01461481
682.24	25.02920271
682.426	25.07039809
682.612	25.11583407
682.798	25.1510945
682.984	25.18672458
683.17	25.22896299
683.356	25.27465878
683.542	25.30088718
683.728	25.32244222
683.914	25.35955019
684.1	25.41094875
684.286	25.46149864
684.472	25.5089896
684.658	25.56288416
684.844	25.60883228
685.03	25.63750966
685.216	25.70059221
685.402	25.73564124
685.588	25.77592618
685.774	25.80560514
685.96	25.83249614
686.145	25.8835074
686.331	25.93423071
686.517	25.94183704
686.703	25.97468312
686.889	26.02448033
687.074	26.03744607
687.26	26.0556842
687.446	26.07642039
687.631	26.12802712
687.817	26.17604218
688.003	26.19498284
688.189	26.21066656
688.374	26.23091258
688.56	26.25761376
688.745	26.28945007
688.931	26.3325614
689.117	26.3526517
689.302	26.41096863
689.488	26.44314884
689.673	26.49774373
689.859	26.53890269
690.044	26.55885063
690.23	26.59203886
690.415	26.6537443
690.601	26.72648166
690.786	26.76297526
690.972	26.80953967
691.157	26.84573376
691.343	26.88843874
691.528	26.91529974
691.713	26.94422912
691.899	26.98311595
692.084	27.03374341
692.269	27.06773696
692.455	27.11773615
692.64	27.15968196
692.825	27.20012288
693.011	27.23910314
693.196	27.26934575
693.381	27.30458448
693.566	27.33486186
693.752	27.36761727
693.937	27.39924907
694.122	27.42656972
694.307	27.46265603
694.492	27.47822802
694.678	27.5117991
694.863	27.55483157
695.048	27.59411368
695.233	27.62737943
695.418	27.67213074
695.603	27.718282
695.788	27.74151706
695.973	27.76867988
696.158	27.81519291
696.343	27.81412674
696.528	27.84074299
696.713	27.8728509
696.898	27.91160287
697.083	27.92673089
697.268	27.96104593
697.453	27.97681896
697.638	28.01373757
697.823	28.07215886
698.008	28.10898529
698.192	28.14010873
698.377	28.17422229
698.562	28.20564906
698.747	28.2226443
698.932	28.2578525
699.117	28.29347242
699.301	28.29659638
699.486	28.29540107
699.671	28.33118916
699.856	28.35789912
700.04	28.37817114
700.225	28.41522673
700.41	28.44465274
700.594	28.45834597
700.779	28.46253132
700.964	28.49963168
701.148	28.52357478
701.333	28.56971343
701.517	28.61151676
701.702	28.61379551
701.887	28.62699216
702.071	28.64762075
702.256	28.68697512
702.44	28.68929098
702.625	28.71860829
702.809	28.74027187
702.994	28.76104181
703.178	28.80504124
703.362	28.83412465
703.547	28.85486248
703.731	28.87462662
703.916	28.88861917
704.1	28.90560393
704.284	28.90531728
704.469	28.93255355
704.653	28.96082926
704.837	28.96533058
705.022	29.01016533
705.206	29.02289688
705.39	29.0205705
705.575	29.04929658
705.759	29.05956165
705.943	29.07179887
706.127	29.04938741
706.311	29.09108494
706.496	29.10222897
706.68	29.10874559
706.864	29.13543754
707.048	29.14047145
707.232	29.15088026
707.416	29.16868056
707.6	29.19580686
707.785	29.23627773
707.969	29.26160574
708.153	29.30274286
708.337	29.30451794
708.521	29.30209413
708.705	29.31734864
708.889	29.28337213
709.073	29.31906275
709.257	29.33060034
709.441	29.32644662
709.624	29.34533311
709.808	29.3481003
709.992	29.37322964
710.176	29.36952381
710.36	29.38516847
710.544	29.39189085
710.728	29.39917899
710.912	29.42720042
711.095	29.47303951
711.279	29.47807945
711.463	29.46958543
711.647	29.44070773
711.83	29.44125171
712.014	29.43962078
712.198	29.45208062
712.382	29.48519237
712.565	29.48463919
712.749	29.50821214
712.933	29.45193664
713.116	29.47139469
713.3	29.4819799
713.483	29.50027312
713.667	29.51303665
713.851	29.53045815
714.034	29.5124376
714.218	29.54710402
714.401	29.55668142
714.585	29.55074924
714.768	29.53478239
714.952	29.51813691
715.135	29.54126925
715.319	29.55316289
715.502	29.58188842
715.686	29.58401955
715.869	29.59310875
716.052	29.60152627
716.236	29.57132333
716.419	29.59086149
716.602	29.60421331
716.786	29.66545934
716.969	29.67900125
717.152	29.68383199
717.336	29.6621535
717.519	29.67736337
717.702	29.65882649
717.885	29.69813825
718.069	29.69308801
718.252	29.69202624
718.435	29.6975728
718.618	29.70442967
718.801	29.71503695
718.985	29.68844388
719.168	29.70423655
719.351	29.70269649
719.534	29.73587282
719.717	29.73727944
719.9	29.75378004
720.083	29.80024258
720.266	29.8062365
720.449	29.80147883
720.632	29.79337131
720.815	29.77547573
720.998	29.79508241
721.181	29.82202077
721.364	29.81317769
721.547	29.82368251
721.73	29.82518777
721.913	29.80468297
722.096	29.82920071
722.279	29.86814615
722.461	29.87136483
722.644	29.86513618
722.827	29.88352496
723.01	29.88043302
723.193	29.89703143
723.376	29.90192387
723.558	29.8961387
723.741	29.87873949
723.924	29.8560604
724.107	29.8740461
724.289	29.88180408
724.472	29.87709981
724.655	29.88922834
724.837	29.89134941
725.02	29.8639731
725.203	29.87343164
725.385	29.88013977
725.568	29.878068
725.75	29.86965631
725.933	29.8419438
726.115	29.81729446
726.298	29.83302431
726.481	29.84786142
726.663	29.86639681
726.845	29.8701465
727.028	29.87120565
727.21	29.86402701
727.393	29.85859273
727.575	29.863464
727.758	29.87448549
727.94	29.86359602
728.122	29.8719048
728.305	29.87946634
728.487	29.87390279
728.67	29.84727827
728.852	29.86899046
729.034	29.87603758
729.216	29.89679253
729.399	29.8998328
729.581	29.92078444
729.763	29.97213482
729.945	29.97943995
730.128	29.9743719
730.31	29.97752917
730.492	29.98674404
730.674	29.97114031
730.856	29.96669251
731.039	29.96436183
731.221	30.00016667
731.403	30.02311756
731.585	30.03565171
731.767	30.0451083
731.949	30.0642722
732.131	30.07099587
732.313	30.07161714
732.495	30.10486701
732.677	30.12019934
732.859	30.13509096
733.041	30.1323819
733.223	30.14236854
733.405	30.17099041
733.587	30.14573003
733.769	30.1612289
733.951	30.16183891
734.132	30.15714948
734.314	30.12912908
734.496	30.1541178
734.678	30.15258236
734.86	30.14605369
735.042	30.13874778
735.223	30.1313795
735.405	30.13863508
735.587	30.14594536
735.769	30.16253733
735.95	30.16880718
736.132	30.18786734
736.314	30.18099363
736.495	30.17540745
736.677	30.18697908
736.859	30.19968627
737.04	30.19864573
737.222	30.1728077
737.403	30.17011319
737.585	30.16490779
737.767	30.17249053
737.948	30.17959569
738.13	30.20567841
738.311	30.23033257
738.493	30.27080214
738.674	30.29276014
738.856	30.30565432
739.037	30.32417424
739.219	30.32108076
739.4	30.32511422
739.581	30.32494716
739.763	30.33789204
739.944	30.35466765
740.125	30.37419947
740.307	30.38400066
740.488	30.37677764
740.669	30.36574824
740.851	30.37938851
741.032	30.39447546
741.213	30.43022526
741.395	30.43543089
741.576	30.46310183
741.757	30.49034776
741.938	30.48111078
742.119	30.46468001
742.301	30.43939408
742.482	30.45307742
742.663	30.45922381
742.844	30.45994665
743.025	30.46063364
743.206	30.47096913
743.387	30.46136671
743.568	30.460183
743.749	30.45794265
743.93	30.46881672
744.111	30.47553805
744.292	30.49045647
744.473	30.51119636
744.654	30.50902006
744.835	30.51136522
745.016	30.50350414
745.197	30.51904554
745.378	30.49824894
745.559	30.48161263
745.74	30.49430796
745.921	30.510225
746.102	30.5424134
746.282	30.54857188
746.463	30.55864924
746.644	30.55883993
746.825	30.56771766
747.006	30.57629598
747.186	30.56011281
747.367	30.56280802
747.548	30.56060957
747.728	30.56580216
747.909	30.57426094
748.09	30.57699958
748.27	30.56073369
748.451	30.57226394
748.632	30.57984347
748.812	30.58759449
748.993	30.56987659
749.173	30.60616016
749.354	30.63523867
749.535	30.64380241
749.715	30.65071206
749.896	30.64378831
750.076	30.62337422
750.257	30.61334733
750.437	30.61637633
750.618	30.62560369
750.798	30.6373166
750.978	30.66772122
751.159	30.67329122
751.339	30.71432452
751.52	30.71326114
751.7	30.72810768
751.88	30.74055078
752.061	30.76409682
752.241	30.78848553
752.421	30.78325025
752.601	30.79336644
752.782	30.80597458
752.962	30.82308258
753.142	30.8037
753.322	30.81285683
753.503	30.81470412
753.683	30.8410636
753.863	30.8891817
754.043	30.91661093
754.223	30.95984437
754.403	30.99326117
754.583	31.00321345
754.764	31.04171361
754.944	31.07628491
755.124	31.06634354
755.304	31.09470627
755.484	31.1121871
755.664	31.13708117
755.844	31.17562831
756.024	31.17034525
756.204	31.21212909
756.384	31.25236915
756.564	31.28282568
756.743	31.23989285
756.923	31.2599015
757.103	31.28433437
757.283	31.29901076
757.463	31.28508837
757.643	31.27817103
757.823	31.29120713
758.002	31.29973855
758.182	31.2929663
758.362	31.2993154
758.542	31.29883115
758.721	31.27456104
758.901	31.2733603
759.081	31.26254243
759.261	31.25588434
759.44	31.24545553
759.62	31.25568341
759.8	31.23108255
759.979	31.2338424
760.159	31.21149125
760.338	31.19976895
760.518	31.21237072
760.698	31.21702719
760.877	31.21033147
761.057	31.20839298
761.236	31.21368799
761.416	31.1939161
761.595	31.20065811
761.775	31.18275243
761.954	31.15979663
762.133	31.11667342
762.313	31.10906571
762.492	31.12603417
762.672	31.1043784
762.851	31.11992946
763.03	31.10262409
763.21	31.08256
763.389	31.03658241
763.568	31.06470836
763.748	31.0398243
763.927	31.01612081
764.106	31.03016348
764.286	31.0438915
764.465	31.02886894
764.644	31.03727787
764.823	31.01405508
765.002	31.00778498
765.182	31.02600411
765.361	30.99249811
765.54	30.99763601
765.719	31.01434591
765.898	31.026491
766.077	30.99863163
766.256	31.0152826
766.435	31.02485206
766.614	31.00941358
766.793	31.0293869
766.972	31.06859184
767.151	31.07397614
767.33	31.07957002
767.509	31.09577132
767.688	31.09520548
767.867	31.09513059
768.046	31.06661279
768.225	31.10140466
768.404	31.09458397
768.583	31.13411316
768.762	31.15090994
768.94	31.14704944
769.119	31.15007277
769.298	31.17668434
769.477	31.15614693
769.656	31.18876064
769.834	31.20755024
770.013	31.19201937
770.192	31.20136104
770.37	31.18563763
770.549	31.17900893
770.728	31.16723001
770.906	31.18432435
771.085	31.17444187
771.264	31.1998727
771.442	31.22449242
771.621	31.22272392
771.799	31.2418793
771.978	31.22929979
772.157	31.24711068
772.335	31.24709073
772.514	31.23805771
772.692	31.24441281
772.871	31.28227909
773.049	31.28355276
773.228	31.30746716
773.406	31.29609429
773.584	31.3063743
773.763	31.32322958
773.941	31.31183506
774.119	31.357311
774.298	31.39332433
774.476	31.37911383
774.655	31.38367888
774.833	31.4244633
775.011	31.41652955
775.189	31.43347601
775.368	31.46027818
775.546	31.48368697
775.724	31.4897185
775.902	31.4908907
776.08	31.49169756
776.259	31.4888665
776.437	31.5222889
776.615	31.51036517
776.793	31.49714235
776.971	31.5144476
777.149	31.53808384
777.327	31.57008027
777.505	31.57618836
777.683	31.60171717
777.861	31.62330711
778.04	31.61452088
778.218	31.63089598
778.395	31.65177822
778.573	31.63131575
778.751	31.64817438
778.929	31.65996173
779.107	31.6451701
779.285	31.662912
779.463	31.67166992
779.641	31.68176801
779.819	31.68561539
779.997	31.70118323
780.174	31.68921525
780.352	31.71843654
780.53	31.74320408
780.708	31.76250561
780.886	31.77068001
781.063	31.7547435
781.241	31.75691087
781.419	31.77700113
781.596	31.76405748
781.774	31.7840649
781.952	31.80230181
782.129	31.81969311
782.307	31.81181328
782.485	31.81042205
782.662	31.79370425
782.84	31.83654078
783.017	31.86097761
783.195	31.88071925
783.372	31.86636262
783.55	31.89184462
783.727	31.9113469
783.905	31.92885137
784.082	31.92689332
784.26	31.90990015
784.437	31.92312497
784.615	31.93232144
784.792	31.95359626
784.969	31.96581709
785.147	31.98856099
785.324	31.99343628
785.501	31.96099953
785.679	31.9973566
785.856	31.98729791
786.033	32.04200889
786.211	32.06563374
786.388	32.08938998
786.565	32.10875174
786.742	32.10452537
786.92	32.1303281
787.097	32.18097986
787.274	32.20739722
787.451	32.25693258
787.628	32.25777983
787.805	32.27421322
787.982	32.31411429
788.16	32.30070893
788.337	32.30458848
788.514	32.30584256
788.691	32.32569192
788.868	32.34116171
789.045	32.36928012
789.222	32.41383462
789.399	32.39908016
789.576	32.40853609
789.753	32.41413435
789.93	32.41481756
790.106	32.41907983
790.283	32.4043387
790.46	32.38549919
790.637	32.37138804
790.814	32.3950387
790.991	32.36739109
791.168	32.33339083
791.344	32.35391488
791.521	32.37754024
791.698	32.36379655
791.875	32.36181991
792.051	32.35833743
792.228	32.33153144
792.405	32.37765924
792.581	32.38231961
792.758	32.35519599
792.935	32.39151181
793.111	32.40244553
793.288	32.43469933
793.465	32.44011348
793.641	32.44741213
793.818	32.47594969
793.994	32.49442927
794.171	32.53693762
794.347	32.56115512
794.524	32.53733137
794.7	32.56238049
794.877	32.56437028
795.053	32.55356855
795.23	32.54110325
795.406	32.56455128
795.583	32.64783753
795.759	32.70145542
795.935	32.7336495
796.112	32.71242083
796.288	32.69368291
796.464	32.72346108
796.641	32.69026744
796.817	32.69135107
796.993	32.69118308
797.169	32.72417616
797.346	32.77907385
797.522	32.79580769
797.698	32.82797706
797.874	32.8266523
798.051	32.8415246
798.227	32.8567668
798.403	32.90730133
798.579	32.95101192
798.755	32.98266624
798.931	32.99387855
799.107	33.00137648
799.283	32.95186491
799.459	32.91125735
799.635	32.95782575
799.811	32.94165556
799.987	32.9917393
800.163	33.03350152
800.339	33.06983798
800.515	33.11481451
800.691	33.15759486
800.867	33.13722593
801.043	33.11064482
801.219	33.11791557
801.395	33.1110498
801.571	33.13758933
801.746	33.14782373
801.922	33.16344638
802.098	33.14893128
802.274	33.15360563
802.45	33.16968177
802.625	33.17065708
802.801	33.18773852
802.977	33.21745153
803.152	33.23615422
803.328	33.24825908
803.504	33.30622995
803.679	33.31058831
803.855	33.29211502
804.031	33.29072245
804.206	33.26977699
804.382	33.25360156
804.557	33.29271483
804.733	33.33635266
804.909	33.32856066
805.084	33.32518792
805.26	33.32588225
805.435	33.37096445
805.61	33.39534429
805.786	33.44306017
805.961	33.47487682
806.137	33.50549629
806.312	33.568734
806.488	33.60266383
806.663	33.6346044
806.838	33.70848664
807.014	33.7641274
807.189	33.76870993
807.364	33.77619157
807.54	33.79251118
807.715	33.81977062
807.89	33.8824325
808.065	33.91215628
808.241	33.8750727
808.416	33.86796663
808.591	33.9272497
808.766	33.99389536
808.941	34.04520898
809.116	34.03785763
809.291	34.04905939
809.467	34.05870252
809.642	34.119103
809.817	34.14220153
809.992	34.19153822
810.167	34.23782587
810.342	34.27089481
810.517	34.22391867
810.692	34.25666831
810.867	34.25913542
811.042	34.2618237
811.217	34.34807271
811.392	34.41781187
811.567	34.45662895
811.741	34.47848709
811.916	34.567926
812.091	34.62214581
812.266	34.68482814
812.441	34.67470003
812.616	34.71391058
812.79	34.74896183
812.965	34.80727476
813.14	34.81100327
813.315	34.77334986
813.489	34.77597909
813.664	34.78066996
813.839	34.7741688
814.013	34.78054371
814.188	34.87243749
814.363	34.83013012
814.537	34.90756253
814.712	34.9778086
814.887	34.96530946
815.061	34.95216249
815.236	34.94083209
815.41	35.03916929
815.585	35.04164161
815.759	35.09956111
815.934	35.04754663
816.108	35.11365155
816.283	35.11202874
816.457	35.15933618
816.631	35.14966325
816.806	35.15058005
816.98	35.28621489
817.155	35.283616
817.329	35.26936566
817.503	35.27485048
817.678	35.25337183
817.852	35.30941587
818.026	35.31968195
818.201	35.29909217
818.375	35.30561942
818.549	35.30541491
818.723	35.3488318
818.897	35.35868473
819.072	35.29060586
819.246	35.31261443
819.42	35.27190176
819.594	35.33879851
819.768	35.34210939
819.942	35.31633385
820.116	35.27494557
820.29	35.25914594
820.465	35.34252781
820.639	35.25189213
820.813	35.29335612
820.987	35.33910668
821.161	35.34582019
821.335	35.47980955
821.509	35.44400081
821.682	35.55338689
821.856	35.61602237
822.03	35.60831445
822.204	35.6706121
822.378	35.65480425
822.552	35.68573756
822.726	35.6335045
822.9	35.67649044
823.073	35.71056756
823.247	35.76633355
823.421	35.75007641
823.595	35.8505939
823.768	35.88194642
823.942	35.97636934
824.116	35.97783793
824.289	36.06946052
824.463	36.07292439
824.637	36.15327329
824.81	36.20512597
824.984	36.19660965
825.158	36.25818901
825.331	36.19236326
825.505	36.228019
825.678	36.27665817
825.852	36.33769344
826.025	36.41312971
826.199	36.44570952
826.372	36.60093591
826.546	36.60640398
826.719	36.54643266
826.893	36.54243852
827.066	36.57662965
827.24	36.54652353
827.413	36.59950536
827.586	36.65328601
827.76	36.65550895
827.933	36.63454659
828.106	36.70382289
828.28	36.55692623
828.453	36.50301246
828.626	36.53861541
828.799	36.49393146
828.973	36.51109215
829.146	36.46319537
829.319	36.49539445
829.492	36.44850027
829.665	36.46038115
829.839	36.48751893
830.012	36.47153223
830.185	36.44413802
830.358	36.54437411
830.531	36.55486023
830.704	36.53521441
830.877	36.55730979
831.05	36.63423494
831.223	36.61149468
831.396	36.60528131
831.569	36.55777444
831.742	36.51702238
831.915	36.61654519
832.088	36.73860279
832.261	36.74436278
832.434	36.774777
832.607	36.78508233
832.779	36.80311414
832.952	36.71014626
833.125	36.66264008
833.298	36.69234458
833.471	36.75543399
833.643	36.75406563
833.816	36.86623774
833.989	36.71740714
834.162	36.71004863
834.334	36.79098446
834.507	36.84852082
834.68	36.77229098
834.852	36.80718703
835.025	36.89477063
835.198	36.94413521
835.37	37.02601223
835.543	37.00007779
835.715	36.92942576
835.888	36.89406478
836.061	36.9594093
836.233	37.01859406
836.406	37.08699424
836.578	37.22753808
836.751	37.31852687
836.923	37.33156183
837.095	37.24638258
837.268	37.35666853
837.44	37.30043683
837.613	37.48077976
837.785	37.51804551
837.957	37.54165961
838.13	37.50299366
838.302	37.57548811
838.474	37.54754764
838.647	37.53637343
838.819	37.54740485
838.991	37.48272001
839.163	37.57037951
839.336	37.623635
839.508	37.70525722
839.68	37.69074974
839.852	37.71128378
840.024	37.68002838
840.196	37.71299384
840.368	37.80424738
840.541	37.71371533
840.713	37.71834671
840.885	37.68448793
841.057	37.76836828
841.229	37.83866746
841.401	37.81055787
841.573	37.89299963
841.745	37.87518046
841.917	37.85910498
842.089	37.98060698
842.261	38.01466216
842.432	38.14643939
842.604	38.23248786
842.776	38.26004777
842.948	38.2697768
843.12	38.19378171
843.292	38.27095586
843.464	38.25675384
843.635	38.33535171
843.807	38.36945883
843.979	38.38273109
844.151	38.40923408
844.322	38.50703012
844.494	38.47634019
844.666	38.398191
844.837	38.39944425
845.009	38.49409403
845.181	38.46783323
845.352	38.57326359
845.524	38.56744363
845.695	38.44522434
845.867	38.47410234
846.039	38.39330442
846.21	38.44901628
846.382	38.43603747
846.553	38.41719936
846.725	38.58622041
846.896	38.5423954
847.068	38.63803786
847.239	38.71690976
847.41	38.72015947
847.582	38.58878707
847.753	38.80163349
847.925	38.8828401
848.096	38.87841288
848.267	38.99675421
848.439	38.86347996
848.61	38.90837244
848.781	38.87523621
848.952	38.954001
849.124	39.10109531
849.295	39.13365163
849.466	39.01076602
849.637	39.11179323
849.808	38.93777537
849.98	39.00126878
850.151	39.10615413
850.322	39.03907256
850.493	39.11268435
850.664	39.14522106
850.835	38.9825171
851.006	38.93167068
851.177	39.05266716
851.348	38.99155606
851.519	39.05008148
851.69	39.19191956
851.861	39.20511988
852.032	39.33646146
852.203	39.3131822
852.374	39.3337874
852.545	39.20704024
852.716	39.07079654
852.887	39.19915325
853.057	39.2982251
853.228	39.2558656
853.399	39.52349652
853.57	39.58780124
853.741	39.57776595
853.911	39.57800029
854.082	39.46819614
854.253	39.4505913
854.424	39.45747516
854.594	39.5607489
854.765	39.61771805
854.936	39.51241978
855.106	39.36408437
855.277	39.3930889
855.447	39.42648931
855.618	39.49910924
855.789	39.53011112
855.959	39.46218798
856.13	39.63784688
856.3	39.80713313
856.471	39.76923446
856.641	39.79755174
856.812	39.82295654
856.982	39.84341268
857.153	39.87191788
857.323	40.08643988
857.493	39.98576303
857.664	40.0987092
857.834	40.08429755
858.004	40.14494964
858.175	40.18372067
858.345	40.00317676
858.515	40.22694005
858.686	40.255294
858.856	40.32520736
859.026	40.23803307
859.196	40.27221516
859.367	40.30287147
859.537	40.48230347
859.707	40.33814068
859.877	40.30940354
860.047	40.38333
860.217	40.42776309
860.387	40.4787046
860.558	40.3784382
860.728	40.36717409
860.898	40.34444888
861.068	40.50797778
861.238	40.48536219
861.408	40.53454524
861.578	40.57335837
861.748	40.42760183
861.918	40.71329366
862.088	40.54913569
862.257	40.56528836
862.427	40.50420255
862.597	40.66488503
862.767	40.656565
862.937	40.66729267
863.107	40.80772273
863.277	40.88716468
863.446	40.81924753
863.616	40.74463258
863.786	40.89388483
863.956	40.88262508
864.125	40.88319816
864.295	40.95694947
864.465	40.94905256
864.634	40.92676488
864.804	41.06133473
864.974	40.96759802
865.143	41.13438595
865.313	41.35370775
865.482	41.24611556
865.652	41.45533577
865.822	41.53611113
865.991	41.55745126
866.161	41.51993625
866.33	41.68281518
866.5	41.67952686
866.669	41.48309011
866.838	41.6754669
867.008	41.82338885
867.177	41.89730231
867.347	41.73976978
867.516	41.57662251
867.685	41.85548762
867.855	41.88316301
868.024	41.78318339
868.193	41.87715628
868.363	42.03221589
868.532	42.26805394
868.701	42.35101975
868.87	42.23082848
869.04	42.10359888
869.209	41.99251934
869.378	42.11981334
869.547	42.01218408
869.716	41.97881141
869.885	41.94738238
870.055	41.97677509
870.224	41.86830311
870.393	41.87733199
870.562	41.7897441
870.731	41.87341706
870.9	41.98474278
871.069	42.1497185
871.238	42.02829956
871.407	41.95636894
871.576	41.93344992
871.745	41.93085449
871.914	41.62391413
872.083	41.52656706
872.251	41.47990003
872.42	41.44236014
872.589	41.57424423
872.758	41.6048795
872.927	41.49822619
873.096	41.54438908
873.264	41.74324432
873.433	41.69785306
873.602	41.48977068
873.771	41.92107119
873.939	42.00813894
874.108	42.20225441
874.277	42.30816379
874.445	42.41711741
874.614	42.30984488
874.783	42.2922861
874.951	42.0941224
875.12	42.21158939
875.288	42.37207299
875.457	42.54222476
875.625	42.59285174
875.794	42.72737448
875.962	43.02319277
876.131	43.12076102
876.299	43.26661904
876.468	43.28224184
876.636	43.36523003
876.805	43.09334411
876.973	43.19085469
877.141	43.51926664
877.31	43.25988952
877.478	43.05224651
877.647	42.85002171
877.815	42.84025417
877.983	42.64698589
878.151	42.83815323
878.32	42.849477
878.488	43.28262918
878.656	43.28129275
878.824	43.42181957
878.992	43.49187913
879.161	43.79175806
879.329	43.64391765
879.497	43.45593089
879.665	43.50193635
879.833	43.52069665
880.001	43.51241934
880.169	43.85578185
880.337	44.14733135
880.505	44.01187005
880.673	44.17221798
880.841	44.27651508
881.009	44.58484842
881.177	44.76953035
881.345	44.5725688
881.513	44.68042096
881.681	44.82556459
881.849	44.79340325
882.017	44.75290395
882.185	45.11389256
882.352	44.82218328
882.52	44.76352121
882.688	44.51122878
882.856	44.34730554
883.024	44.47791374
883.191	44.5138828
883.359	44.44337155
883.527	44.48590014
883.694	44.26313902
883.862	44.33810251
884.03	44.26164082
884.197	43.81171136
884.365	43.88784743
884.533	43.50434414
884.7	43.49843678
884.868	43.69232219
885.035	43.66817675
885.203	43.8936351
885.37	43.97795743
885.538	43.87437438
885.705	43.4796318
885.873	43.581118
886.04	43.58787104
886.208	43.57526637
886.375	43.82302349
886.542	43.81214162
886.71	43.80056789
886.877	43.89363691
