Data from lightbluecarapace_Reflection_00001.txt Node
Date: Fri Jun 14 12:20:13 AEST 2024
User: uqkchene_local
Spectrometer: USB4E02642
Trigger mode: 4
Integration Time (sec): 2.000000E-2
Scans to average: 10
Electric dark correction enabled: true
Nonlinearity correction enabled: false
Boxcar width: 100
XAxis mode: Wavelengths
Number of Pixels in Spectrum: 3648
>>>>>Begin Spectral Data<<<<<
179.217	41.30758989
179.432	41.32742091
179.647	41.99847054
179.862	41.86671635
180.077	41.83899666
180.293	41.96953076
180.508	41.76870311
180.723	41.82620942
180.938	41.501366
181.153	41.56599107
181.368	41.44845309
181.583	41.58082265
181.798	41.89368563
182.013	41.90210337
182.228	41.81906995
182.443	41.47315797
182.658	41.77849285
182.873	41.88980978
183.088	41.73107127
183.303	41.5418635
183.518	41.69335219
183.733	41.40490398
183.948	41.68211288
184.162	41.49682414
184.377	41.64479602
184.592	41.51300458
184.807	41.11969758
185.022	40.91233145
185.237	41.30616991
185.452	41.53787996
185.667	41.8716934
185.882	41.6468934
186.096	41.82001306
186.311	41.94659941
186.526	41.9991913
186.741	42.33238834
186.956	42.30938135
187.17	42.10285999
187.385	41.87194371
187.6	41.78626079
187.815	41.42712706
188.03	41.39865287
188.244	41.13235978
188.459	41.10869622
188.674	41.27972906
188.889	41.06044584
189.103	41.13261391
189.318	41.36414575
189.533	41.24988668
189.747	41.1902829
189.962	41.06266237
190.177	41.05472212
190.391	41.14913573
190.606	40.92642082
190.821	40.83057315
191.035	40.75079911
191.25	40.87747257
191.465	40.58570815
191.679	40.90375072
191.894	40.7658667
192.109	40.64135686
192.323	41.02049476
192.538	40.92464098
192.752	41.12143206
192.967	41.1914708
193.181	41.1874081
193.396	41.39251258
193.611	41.34199134
193.825	41.23381503
194.04	41.56801912
194.254	41.17420081
194.469	40.97070678
194.683	41.27484883
194.898	41.52846891
195.112	41.69109451
195.327	41.80354423
195.541	41.88115519
195.756	41.88731126
195.97	41.84117361
196.184	41.88923645
196.399	41.93920949
196.613	42.00087766
196.828	41.77716286
197.042	41.58282593
197.257	41.77697139
197.471	42.09442409
197.685	42.0448932
197.9	42.06456933
198.114	42.06123133
198.328	41.99335112
198.543	42.18546349
198.757	42.14533128
198.971	41.89782456
199.186	41.77702998
199.4	41.86077235
199.614	41.83473711
199.829	41.91168643
200.043	42.0616696
200.257	41.94639284
200.471	41.95776605
200.686	41.80363502
200.9	41.79222148
201.114	41.75375536
201.328	41.58552233
201.543	41.46381066
201.757	41.80391756
201.971	41.75173861
202.185	41.9632788
202.399	42.00010925
202.614	42.15713649
202.828	42.4495468
203.042	42.52735054
203.256	42.30357429
203.47	42.19713155
203.684	41.81926322
203.899	41.77086156
204.113	41.58924569
204.327	41.64492479
204.541	41.73467723
204.755	41.48552664
204.969	41.51994386
205.183	41.6782745
205.397	41.89261601
205.611	41.64463571
205.825	41.5630628
206.039	41.7229522
206.253	41.97572502
206.467	41.68937762
206.681	41.46026515
206.895	41.49379396
207.109	41.33872122
207.323	41.14936564
207.537	41.03626087
207.751	41.05062262
207.965	40.99156488
208.179	41.25381655
208.393	41.125241
208.607	40.72781908
208.821	40.87092959
209.035	40.68170547
209.249	40.61449438
209.463	40.84119878
209.677	41.03323691
209.891	40.8122351
210.104	40.70196543
210.318	40.4220394
210.532	40.54251374
210.746	40.69797648
210.96	40.67106186
211.174	40.26141106
211.387	40.44316284
211.601	40.37967551
211.815	40.4010771
212.029	40.32867331
212.243	40.25826571
212.456	40.08554878
212.67	40.26141707
212.884	40.35955631
213.098	40.40935199
213.311	40.41339603
213.525	40.46385308
213.739	40.45161266
213.953	40.25956058
214.166	39.86899513
214.38	39.79767979
214.594	39.97869229
214.807	39.81149304
215.021	40.23348508
215.235	40.07669999
215.448	39.91568756
215.662	40.14794476
215.876	39.76790459
216.089	39.76271199
216.303	39.82867012
216.516	39.79933365
216.73	39.81308411
216.944	39.54964543
217.157	39.63339066
217.371	39.54810224
217.584	39.57460387
217.798	39.2764475
218.011	39.5093303
218.225	39.37548583
218.439	39.5607598
218.652	39.51188953
218.866	39.49080419
219.079	39.38334045
219.293	39.30677656
219.506	39.43592094
219.719	39.31163751
219.933	39.53034969
220.146	39.46670801
220.36	39.40752518
220.573	39.55380449
220.787	39.59455143
221	39.5830591
221.214	39.42655954
221.427	39.68934519
221.64	39.42176578
221.854	39.29009755
222.067	39.45882608
222.28	39.51486494
222.494	39.44557335
222.707	38.950133
222.92	38.96621836
223.134	39.00716644
223.347	38.68944208
223.56	38.76187743
223.774	38.80149226
223.987	38.68270336
224.2	38.79456359
224.414	38.84293834
224.627	38.71353126
224.84	38.595136
225.053	38.4136106
225.267	38.3641541
225.48	38.55630999
225.693	38.32740121
225.906	38.405361
226.119	38.44333799
226.333	38.59372053
226.546	38.3389494
226.759	38.54292234
226.972	38.25994762
227.185	38.36543735
227.398	38.18069101
227.612	38.12245743
227.825	38.27647757
228.038	38.34939799
228.251	38.10409816
228.464	38.00869968
228.677	37.58532029
228.89	37.72186341
229.103	37.53144706
229.316	37.52623948
229.529	37.30810504
229.743	37.07241365
229.956	36.96584274
230.169	36.98579639
230.382	37.06330773
230.595	37.03435738
230.808	37.24350545
231.021	37.32839831
231.234	37.36997725
231.447	37.31942009
231.66	37.20099925
231.872	37.37557285
232.085	37.34649896
232.298	37.18193836
232.511	37.17349574
232.724	37.14639882
232.937	37.13285566
233.15	37.11065849
233.363	36.97577772
233.576	37.10496502
233.789	37.24947519
234.002	37.32076248
234.214	37.10748607
234.427	37.23425342
234.64	37.02650594
234.853	37.16787754
235.066	37.26587389
235.279	37.03681129
235.491	37.15413465
235.704	37.06619589
235.917	36.96047568
236.13	37.02607883
236.342	36.99825418
236.555	36.97787867
236.768	36.94957658
236.981	36.67171586
237.193	36.76570089
237.406	36.75959356
237.619	36.45438753
237.832	36.30876579
238.044	36.16256323
238.257	36.08108156
238.47	35.94595071
238.682	35.80300043
238.895	35.76400772
239.108	35.50484927
239.32	35.34288397
239.533	35.3893179
239.746	35.48091293
239.958	35.72128478
240.171	35.61697755
240.383	35.33578366
240.596	35.32254763
240.808	35.36432008
241.021	35.30644843
241.234	35.25114124
241.446	35.07005845
241.659	35.06240479
241.871	35.25281141
242.084	35.23397413
242.296	35.11820465
242.509	35.02380666
242.721	34.79116373
242.934	34.59778217
243.146	34.68916962
243.359	34.57847806
243.571	34.66477637
243.784	34.6869225
243.996	34.71010151
244.208	34.75465151
244.421	34.7662268
244.633	34.63941349
244.846	34.53262092
245.058	34.53839959
245.27	34.33993035
245.483	34.5238702
245.695	34.31970517
245.907	34.3074895
246.12	34.2685875
246.332	34.22604598
246.544	34.4478234
246.757	34.31853613
246.969	34.32626658
247.181	34.27996142
247.394	34.24817894
247.606	34.35197116
247.818	34.15288076
248.03	34.04476642
248.243	33.86323552
248.455	34.04313276
248.667	33.99244083
248.879	33.93886416
249.092	33.65400375
249.304	33.66144957
249.516	33.63206838
249.728	33.55810881
249.94	33.65923796
250.153	33.6683249
250.365	33.59226406
250.577	33.76017659
250.789	33.61795942
251.001	33.2104923
251.213	33.17859121
251.425	33.22885567
251.637	33.21858524
251.85	33.38942995
252.062	33.5671708
252.274	33.46287793
252.486	33.36132386
252.698	33.5095542
252.91	33.55366094
253.122	33.60998272
253.334	33.53760644
253.546	33.40504463
253.758	33.31995066
253.97	33.62205208
254.182	33.37294347
254.394	33.18412616
254.606	33.23182777
254.818	33.37224854
255.03	33.38361291
255.242	33.55119756
255.454	33.61946093
255.666	33.44881719
255.877	33.40516211
256.089	33.47073398
256.301	33.31726729
256.513	33.4211568
256.725	33.38857456
256.937	33.58693969
257.149	33.8016302
257.361	33.81003276
257.572	34.09655824
257.784	33.95948192
257.996	33.94475352
258.208	34.00324371
258.42	33.78684666
258.631	33.80123056
258.843	33.7059172
259.055	33.47995378
259.267	33.45373242
259.479	33.46825571
259.69	33.57224885
259.902	33.42640054
260.114	33.29402045
260.325	33.22005098
260.537	33.21948726
260.749	33.12772877
260.961	33.24427772
261.172	33.23010428
261.384	33.29840731
261.596	33.23352838
261.807	33.49937582
262.019	33.74335157
262.23	33.7178653
262.442	33.60543971
262.654	33.31196458
262.865	33.28994115
263.077	33.21510756
263.288	33.1465319
263.5	33.31690888
263.712	33.50893945
263.923	33.73515971
264.135	33.54906048
264.346	33.74736384
264.558	33.92944964
264.769	33.81977033
264.981	33.77566446
265.192	33.69377381
265.404	33.81123483
265.615	33.66163875
265.827	33.57112008
266.038	33.62926438
266.25	33.56271999
266.461	33.47906006
266.673	33.60078489
266.884	33.42195777
267.095	33.45426832
267.307	33.45815672
267.518	33.30185828
267.73	33.44359926
267.941	33.37952716
268.152	33.28986614
268.364	33.26818396
268.575	33.16750768
268.786	33.26616289
268.998	33.05122911
269.209	33.15981112
269.42	32.96866753
269.632	33.00567214
269.843	32.90490097
270.054	32.95002931
270.265	33.03689735
270.477	32.93229226
270.688	33.04655349
270.899	33.02865003
271.11	32.91707726
271.322	32.99655619
271.533	32.92818799
271.744	32.94474989
271.955	32.73497636
272.166	32.74035573
272.378	32.85185676
272.589	32.74647035
272.8	32.69904777
273.011	32.56771872
273.222	32.5020397
273.433	32.36369404
273.644	32.32214024
273.856	32.235987
274.067	32.12259624
274.278	32.03739712
274.489	31.85522574
274.7	31.68891394
274.911	31.71305133
275.122	31.71011243
275.333	31.49087511
275.544	31.32205041
275.755	31.20844368
275.966	30.90366262
276.177	30.61855301
276.388	30.27265768
276.599	30.01847699
276.81	29.79693138
277.021	29.7331487
277.232	29.41336103
277.443	29.01430303
277.654	28.61691478
277.865	28.26888109
278.076	27.94427581
278.287	27.48048745
278.497	27.04263295
278.708	26.53632762
278.919	26.12903535
279.13	25.83539958
279.341	25.4637177
279.552	25.05930069
279.763	24.73985962
279.973	24.48043112
280.184	24.0710364
280.395	23.69270705
280.606	23.23028474
280.817	22.80441907
281.027	22.42835095
281.238	22.00553026
281.449	21.66281768
281.66	21.33880721
281.87	20.94377775
282.081	20.49744046
282.292	20.08408619
282.503	19.696785
282.713	19.30168905
282.924	18.86430249
283.135	18.5056755
283.345	18.08837953
283.556	17.76567535
283.767	17.42200349
283.977	17.10312584
284.188	16.73647856
284.399	16.46107782
284.609	16.19598653
284.82	15.88999254
285.03	15.59106693
285.241	15.36644366
285.451	15.14450535
285.662	14.90837185
285.873	14.71150524
286.083	14.48832413
286.294	14.24664798
286.504	13.99982624
286.715	13.79166717
286.925	13.6220032
287.136	13.41929407
287.346	13.2401883
287.557	13.06304881
287.767	12.88217098
287.978	12.70196327
288.188	12.56324607
288.399	12.37522999
288.609	12.27424787
288.819	12.14228411
289.03	12.00714593
289.24	11.90473357
289.451	11.81175422
289.661	11.68187682
289.871	11.57212302
290.082	11.48814961
290.292	11.40259906
290.502	11.29567653
290.713	11.22741812
290.923	11.11134307
291.133	11.00294447
291.344	10.88859382
291.554	10.81715635
291.764	10.74603009
291.974	10.67516547
292.185	10.62391015
292.395	10.53980943
292.605	10.48709308
292.815	10.42305051
293.026	10.33708372
293.236	10.27583367
293.446	10.22595324
293.656	10.15520498
293.866	10.10005212
294.077	10.02491347
294.287	9.96103555
294.497	9.90354279
294.707	9.85736031
294.917	9.81422565
295.127	9.77045835
295.337	9.71755394
295.548	9.66532492
295.758	9.63501702
295.968	9.59294921
296.178	9.55863967
296.388	9.5126949
296.598	9.47908873
296.808	9.44921199
297.018	9.41980758
297.228	9.38070458
297.438	9.36230539
297.648	9.31738763
297.858	9.28360118
298.068	9.26316686
298.278	9.23909401
298.488	9.20612273
298.698	9.18223065
298.908	9.14628825
299.118	9.11876419
299.328	9.08468067
299.538	9.05771204
299.748	9.02626125
299.957	8.99305791
300.167	8.97223644
300.377	8.94211168
300.587	8.91633744
300.797	8.89100904
301.007	8.86474665
301.217	8.84358964
301.426	8.81662258
301.636	8.78854224
301.846	8.76338966
302.056	8.74217758
302.266	8.72161203
302.475	8.69742912
302.685	8.67629743
302.895	8.66015091
303.105	8.64135849
303.314	8.61854502
303.524	8.60043616
303.734	8.58453574
303.944	8.56961021
304.153	8.54937782
304.363	8.52790636
304.573	8.51088997
304.782	8.49913662
304.992	8.49163347
305.202	8.47740372
305.411	8.47065578
305.621	8.45108508
305.831	8.43767292
306.04	8.42035208
306.25	8.40370355
306.459	8.39295187
306.669	8.37867625
306.878	8.36749745
307.088	8.35366165
307.298	8.33761367
307.507	8.33093645
307.717	8.32198853
307.926	8.31234466
308.136	8.30361089
308.345	8.29293277
308.555	8.28325985
308.764	8.27488153
308.974	8.26771895
309.183	8.25558319
309.392	8.24794832
309.602	8.23930224
309.811	8.23168014
310.021	8.22098182
310.23	8.21651443
310.44	8.20848389
310.649	8.19991922
310.858	8.19175832
311.068	8.17943766
311.277	8.17425217
311.486	8.165541
311.696	8.15952458
311.905	8.15436249
312.114	8.14633224
312.324	8.13783941
312.533	8.13123834
312.742	8.12680283
312.952	8.11844533
313.161	8.11102066
313.37	8.10408641
313.579	8.09698901
313.789	8.0910794
313.998	8.08126887
314.207	8.07530223
314.416	8.07083933
314.625	8.06104115
314.835	8.05376269
315.044	8.04679634
315.253	8.04200806
315.462	8.03321888
315.671	8.02613596
315.88	8.0180167
316.09	8.01480646
316.299	8.01001775
316.508	8.00400282
316.717	8.00118886
316.926	7.99634681
317.135	7.99074254
317.344	7.98277188
317.553	7.98032935
317.762	7.97556504
317.971	7.96983954
318.18	7.96716174
318.389	7.96238608
318.598	7.9591922
318.807	7.95450367
319.016	7.94987158
319.225	7.94199052
319.434	7.9373346
319.643	7.93547339
319.852	7.93187339
320.061	7.92798492
320.27	7.92305297
320.479	7.92109929
320.688	7.9172109
320.897	7.91675845
321.105	7.91239655
321.314	7.90623556
321.523	7.90551794
321.732	7.90207862
321.941	7.89671595
322.15	7.89130333
322.359	7.88909953
322.567	7.88451061
322.776	7.88158553
322.985	7.87713414
323.194	7.87440182
323.403	7.87196342
323.611	7.86744745
323.82	7.86376299
324.029	7.86231984
324.237	7.85750279
324.446	7.85533919
324.655	7.8507058
324.864	7.84764839
325.072	7.84496979
325.281	7.84145453
325.49	7.83923305
325.698	7.83688183
325.907	7.8350513
326.116	7.83196942
326.324	7.82983736
326.533	7.8261472
326.741	7.82385325
326.95	7.82071267
327.159	7.81995032
327.367	7.81668754
327.576	7.81399085
327.784	7.81147065
327.993	7.80779004
328.201	7.805445
328.41	7.8038792
328.618	7.80188985
328.827	7.79879923
329.035	7.79553445
329.244	7.79310901
329.452	7.7924735
329.661	7.79005458
329.869	7.78831829
330.078	7.78498644
330.286	7.78342803
330.495	7.78262154
330.703	7.78063362
330.911	7.77922744
331.12	7.77739562
331.328	7.77589634
331.537	7.77210458
331.745	7.77177387
331.953	7.7709374
332.162	7.76676826
332.37	7.76505205
332.578	7.76464541
332.787	7.76240239
332.995	7.76070654
333.203	7.76020084
333.411	7.75949499
333.62	7.75795439
333.828	7.7547107
334.036	7.75417793
334.244	7.7519751
334.453	7.75095564
334.661	7.7492729
334.869	7.75006085
335.077	7.75022304
335.285	7.75059345
335.494	7.75083099
335.702	7.75230052
335.91	7.75159035
336.118	7.75227207
336.326	7.75177225
336.534	7.75079695
336.742	7.74922044
336.951	7.74668136
337.159	7.74578275
337.367	7.74626823
337.575	7.74637626
337.783	7.74540641
337.991	7.74537059
338.199	7.7446609
338.407	7.74529523
338.615	7.744417
338.823	7.74453497
339.031	7.74335957
339.239	7.74297393
339.447	7.74153629
339.655	7.74364102
339.863	7.74425621
340.071	7.74515006
340.279	7.74521839
340.487	7.74739828
340.695	7.74751143
340.903	7.74869133
341.11	7.75002677
341.318	7.75068318
341.526	7.75074041
341.734	7.7532956
341.942	7.7525432
342.15	7.75186584
342.358	7.75387982
342.565	7.75533061
342.773	7.75629352
342.981	7.75952825
343.189	7.76158075
343.397	7.76583138
343.604	7.76755166
343.812	7.76978302
344.02	7.77307438
344.228	7.77533084
344.435	7.77870724
344.643	7.78177741
344.851	7.78609068
345.058	7.7884183
345.266	7.79205009
345.474	7.79469449
345.681	7.79675396
345.889	7.79960505
346.097	7.80287401
346.304	7.80553535
346.512	7.80908832
346.72	7.81227729
346.927	7.81411509
347.135	7.81817034
347.342	7.82053305
347.55	7.82528629
347.758	7.82840812
347.965	7.83293758
348.173	7.83791135
348.38	7.84177109
348.588	7.8465589
348.795	7.85070024
349.003	7.85616043
349.21	7.86211584
349.418	7.86573663
349.625	7.87025479
349.833	7.87432561
350.04	7.87845085
350.247	7.88460282
350.455	7.89000683
350.662	7.89535764
350.87	7.90045906
351.077	7.9074153
351.284	7.91221434
351.492	7.91895081
351.699	7.92552951
351.906	7.932753
352.114	7.93767074
352.321	7.94420907
352.528	7.95290683
352.736	7.96011402
352.943	7.96805608
353.15	7.9752143
353.358	7.98278067
353.565	7.99054723
353.772	7.99684341
353.979	8.00627949
354.187	8.0149223
354.394	8.0225027
354.601	8.03019396
354.808	8.03846537
355.015	8.04687015
355.223	8.05560996
355.43	8.06447379
355.637	8.07339136
355.844	8.08305069
356.051	8.09325154
356.258	8.10214914
356.465	8.11218853
356.673	8.12443826
356.88	8.13406225
357.087	8.14419818
357.294	8.15503817
357.501	8.16606714
357.708	8.1761322
357.915	8.18531131
358.122	8.19586208
358.329	8.20709436
358.536	8.21771633
358.743	8.2289858
358.95	8.24088039
359.157	8.25350192
359.364	8.26461965
359.571	8.27738283
359.778	8.28952049
359.985	8.30260704
360.192	8.31672402
360.399	8.32957422
360.606	8.34375284
360.812	8.35881392
361.019	8.37288279
361.226	8.38716132
361.433	8.40003121
361.64	8.41555172
361.847	8.43051681
362.054	8.44532203
362.26	8.46054504
362.467	8.47857538
362.674	8.49459021
362.881	8.51163994
363.088	8.5309729
363.294	8.54905737
363.501	8.5675952
363.708	8.58771496
363.915	8.60867028
364.121	8.62868991
364.328	8.64950979
364.535	8.67143413
364.741	8.69430464
364.948	8.71606537
365.155	8.73781755
365.361	8.76092637
365.568	8.78347422
365.775	8.80561344
365.981	8.82890176
366.188	8.85213242
366.395	8.87682884
366.601	8.90242129
366.808	8.92930125
367.014	8.95515549
367.221	8.98357561
367.427	9.01080458
367.634	9.0380507
367.84	9.06538686
368.047	9.09449808
368.254	9.12351461
368.46	9.15344928
368.667	9.18466117
368.873	9.21550147
369.079	9.24747825
369.286	9.2781617
369.492	9.30925928
369.699	9.34142886
369.905	9.37333689
370.112	9.40674147
370.318	9.44220027
370.524	9.47944421
370.731	9.51752992
370.937	9.55531594
371.144	9.5939427
371.35	9.63444708
371.556	9.6770614
371.763	9.72053614
371.969	9.76434149
372.175	9.81063028
372.381	9.85542364
372.588	9.9024961
372.794	9.95121496
373	9.99958929
373.206	10.04998424
373.413	10.10244454
373.619	10.15445555
373.825	10.20935117
374.031	10.26526397
374.238	10.32229686
374.444	10.38008798
374.65	10.44125634
374.856	10.50326383
375.062	10.56558787
375.268	10.63103505
375.475	10.69743448
375.681	10.76258487
375.887	10.82974116
376.093	10.89912611
376.299	10.96902491
376.505	11.0373617
376.711	11.10821414
376.917	11.17984176
377.123	11.25342674
377.329	11.32719857
377.535	11.40417323
377.741	11.48117935
377.947	11.55843038
378.153	11.63852416
378.359	11.71974701
378.565	11.80194986
378.771	11.88517211
378.977	11.96809604
379.183	12.05378569
379.389	12.13882528
379.595	12.22369388
379.801	12.31019558
380.007	12.3972236
380.213	12.48675139
380.418	12.57556403
380.624	12.6662801
380.83	12.75779859
381.036	12.85056522
381.242	12.94583271
381.448	13.04072363
381.653	13.1364
381.859	13.23079592
382.065	13.32647381
382.271	13.42464063
382.476	13.52344287
382.682	13.62177456
382.888	13.72280517
383.094	13.82279971
383.299	13.92419971
383.505	14.02737823
383.711	14.12851659
383.916	14.23230537
384.122	14.33582601
384.328	14.44043389
384.533	14.54528065
384.739	14.65054835
384.945	14.75567796
385.15	14.86407622
385.356	14.97123583
385.562	15.07787507
385.767	15.18622822
385.973	15.29480807
386.178	15.40378855
386.384	15.51231345
386.589	15.62282741
386.795	15.73336283
387	15.84290875
387.206	15.95337989
387.411	16.06274102
387.617	16.17167805
387.822	16.28168922
388.028	16.39136665
388.233	16.50269822
388.439	16.61502127
388.644	16.72458374
388.85	16.83359772
389.055	16.94518619
389.26	17.05782112
389.466	17.16711016
389.671	17.27432284
389.877	17.38516756
390.082	17.49469724
390.287	17.60444035
390.493	17.71467649
390.698	17.82258525
390.903	17.93284386
391.109	18.04098814
391.314	18.15032656
391.519	18.26038871
391.724	18.36893659
391.93	18.47722137
392.135	18.58515318
392.34	18.6925348
392.545	18.80045719
392.751	18.9078876
392.956	19.01505613
393.161	19.121924
393.366	19.22823777
393.571	19.33515302
393.776	19.44142218
393.982	19.54619282
394.187	19.65021163
394.392	19.75478385
394.597	19.86148541
394.802	19.96486582
395.007	20.07057268
395.212	20.17403673
395.417	20.2763293
395.622	20.37903432
395.827	20.48014508
396.032	20.58082052
396.237	20.6800283
396.442	20.77910962
396.647	20.87798375
396.852	20.97702741
397.057	21.07495449
397.262	21.1720417
397.467	21.26909976
397.672	21.36619301
397.877	21.46015425
398.082	21.55289407
398.287	21.64827635
398.492	21.74354658
398.697	21.83590983
398.902	21.93131074
399.107	22.02449818
399.311	22.11867741
399.516	22.2101292
399.721	22.30236348
399.926	22.39455969
400.131	22.48544431
400.336	22.57459975
400.54	22.66455621
400.745	22.75474735
400.95	22.84298654
401.155	22.93168235
401.359	23.01851685
401.564	23.10402591
401.769	23.19045935
401.974	23.27753378
402.178	23.36181239
402.383	23.44636055
402.588	23.53079538
402.792	23.61445489
402.997	23.69648139
403.202	23.77969679
403.406	23.86276176
403.611	23.94380423
403.815	24.02406143
404.02	24.10512383
404.225	24.18632728
404.429	24.26574118
404.634	24.34489271
404.838	24.42536821
405.043	24.5051259
405.247	24.58436916
405.452	24.66362676
405.656	24.74243411
405.861	24.82111095
406.065	24.89712145
406.27	24.9738517
406.474	25.05043621
406.679	25.1257491
406.883	25.20090491
407.088	25.27708555
407.292	25.35270741
407.497	25.42698061
407.701	25.50098235
407.905	25.57420043
408.11	25.64659708
408.314	25.71867971
408.518	25.79092984
408.723	25.86452781
408.927	25.93728414
409.131	26.00983478
409.336	26.08144338
409.54	26.15329629
409.744	26.22472513
409.949	26.29417153
410.153	26.3642901
410.357	26.43253427
410.561	26.50014389
410.766	26.56958855
410.97	26.63861229
411.174	26.7079646
411.378	26.77560437
411.582	26.84271762
411.787	26.90924296
411.991	26.97612348
412.195	27.04108933
412.399	27.10740259
412.603	27.17390118
412.807	27.23869224
413.011	27.30326893
413.215	27.36782615
413.419	27.43198271
413.624	27.49752489
413.828	27.56289681
414.032	27.62650844
414.236	27.69035058
414.44	27.75591646
414.644	27.81830322
414.848	27.88309979
415.052	27.94513916
415.256	28.00901386
415.46	28.0736507
415.664	28.13748438
415.868	28.20059347
416.072	28.26222638
416.275	28.32566957
416.479	28.38612613
416.683	28.44758757
416.887	28.50840167
417.091	28.57003334
417.295	28.62979893
417.499	28.68962141
417.703	28.74954319
417.906	28.80892852
418.11	28.86689157
418.314	28.92458791
418.518	28.98377622
418.722	29.04070501
418.925	29.09803267
419.129	29.1555191
419.333	29.21232802
419.537	29.26781765
419.74	29.32304972
419.944	29.37848902
420.148	29.43324576
420.352	29.48662874
420.555	29.54122146
420.759	29.59511623
420.963	29.64974696
421.166	29.70336682
421.37	29.75435597
421.573	29.80924341
421.777	29.86212447
421.981	29.91515987
422.184	29.96605601
422.388	30.01671337
422.591	30.06640272
422.795	30.11493767
422.999	30.1653171
423.202	30.21374507
423.406	30.25989516
423.609	30.30792758
423.813	30.3551469
424.016	30.40171617
424.22	30.44914218
424.423	30.49306571
424.627	30.53720491
424.83	30.58182387
425.033	30.62585122
425.237	30.66784644
425.44	30.7112002
425.644	30.75285185
425.847	30.79382462
426.05	30.83496116
426.254	30.87404429
426.457	30.91424184
426.66	30.95457206
426.864	30.99335532
427.067	31.03266603
427.27	31.06940884
427.474	31.10573888
427.677	31.14097872
427.88	31.17747356
428.084	31.21391451
428.287	31.24993048
428.49	31.28420076
428.693	31.31885893
428.896	31.35427036
429.1	31.38714181
429.303	31.4206616
429.506	31.45365962
429.709	31.48618844
429.912	31.51972081
430.116	31.55150997
430.319	31.58292781
430.522	31.61301599
430.725	31.64517647
430.928	31.67654233
431.131	31.70589761
431.334	31.73713391
431.537	31.76747381
431.74	31.79837931
431.943	31.82778873
432.146	31.85767257
432.349	31.88779056
432.552	31.91600896
432.755	31.94589786
432.958	31.97573619
433.161	32.0029588
433.364	32.03079898
433.567	32.05956703
433.77	32.08764453
433.973	32.11408615
434.176	32.1416649
434.379	32.16881563
434.582	32.19490408
434.785	32.22217231
434.988	32.24937633
435.19	32.27744551
435.393	32.3033008
435.596	32.32781649
435.799	32.35464751
436.002	32.37964235
436.205	32.40625837
436.407	32.43115349
436.61	32.45639042
436.813	32.48125674
437.016	32.50620211
437.218	32.53085321
437.421	32.55595585
437.624	32.58060447
437.827	32.6040248
438.029	32.62844182
438.232	32.65225673
438.435	32.67530945
438.637	32.69765668
438.84	32.72147924
439.043	32.74510831
439.245	32.76704072
439.448	32.78882193
439.65	32.81335993
439.853	32.83493573
440.056	32.85727331
440.258	32.87843569
440.461	32.90074494
440.663	32.92281291
440.866	32.94255036
441.068	32.9634295
441.271	32.98237077
441.473	33.00239071
441.676	33.02244333
441.878	33.04217317
442.081	33.06158085
442.283	33.08177008
442.486	33.10139066
442.688	33.11849024
442.89	33.13724947
443.093	33.15544199
443.295	33.17443656
443.498	33.19363532
443.7	33.21096691
443.902	33.22979209
444.105	33.24802317
444.307	33.26460139
444.509	33.28314576
444.712	33.30053966
444.914	33.31844982
445.116	33.33579525
445.319	33.35242366
445.521	33.37058044
445.723	33.38620754
445.925	33.40108963
446.128	33.41781162
446.33	33.43493499
446.532	33.45004591
446.734	33.46422399
446.936	33.48075254
447.139	33.49659286
447.341	33.51179897
447.543	33.52758323
447.745	33.54307274
447.947	33.5569883
448.149	33.57145839
448.351	33.58558523
448.553	33.60097419
448.755	33.61558422
448.958	33.62963053
449.16	33.64575724
449.362	33.65884711
449.564	33.67184267
449.766	33.68622691
449.968	33.70026669
450.17	33.71499028
450.372	33.72746765
450.574	33.73931623
450.776	33.75320046
450.978	33.7656199
451.179	33.77705717
451.381	33.7898479
451.583	33.80073321
451.785	33.81268563
451.987	33.82437157
452.189	33.83552289
452.391	33.84661945
452.593	33.85693359
452.795	33.86757929
452.996	33.8793717
453.198	33.88930741
453.4	33.89938159
453.602	33.90971915
453.804	33.91928807
454.005	33.92867251
454.207	33.9396046
454.409	33.94781811
454.611	33.9553579
454.812	33.96612084
455.014	33.97536358
455.216	33.98408336
455.417	33.99268776
455.619	33.99982929
455.821	34.00758346
456.022	34.01437676
456.224	34.02209346
456.426	34.0287442
456.627	34.0342611
456.829	34.04215448
457.031	34.04912237
457.232	34.05741875
457.434	34.06420583
457.635	34.07115269
457.837	34.07663212
458.038	34.08161288
458.24	34.08633716
458.441	34.09066274
458.643	34.09707276
458.844	34.10233924
459.046	34.10672257
459.247	34.11190985
459.449	34.11750396
459.65	34.12220472
459.852	34.12614254
460.053	34.12917782
460.254	34.13357063
460.456	34.13668245
460.657	34.14136344
460.859	34.14624225
461.06	34.14938537
461.261	34.15333842
461.463	34.15560651
461.664	34.15777512
461.865	34.15944291
462.066	34.16242676
462.268	34.16242737
462.469	34.16272662
462.67	34.16368388
462.872	34.16454417
463.073	34.16500869
463.274	34.16595799
463.475	34.16602586
463.676	34.1662737
463.878	34.16629513
464.079	34.16703714
464.28	34.16749968
464.481	34.16657907
464.682	34.16739954
464.883	34.16574965
465.085	34.16542542
465.286	34.16564337
465.487	34.16585986
465.688	34.16515384
465.889	34.16520247
466.09	34.16476807
466.291	34.16393259
466.492	34.16327591
466.693	34.16130626
466.894	34.16013274
467.095	34.15906481
467.296	34.1559074
467.497	34.1540923
467.698	34.15147685
467.899	34.14900188
468.1	34.14765354
468.301	34.14508603
468.502	34.14084355
468.703	34.13697824
468.903	34.13440791
469.104	34.13069802
469.305	34.12716637
469.506	34.12337259
469.707	34.12025742
469.908	34.11650066
470.109	34.11203795
470.309	34.10866388
470.51	34.10511199
470.711	34.10143166
470.912	34.09664811
471.112	34.09322202
471.313	34.08787946
471.514	34.08395408
471.715	34.0792517
471.915	34.07407812
472.116	34.06988275
472.317	34.06524681
472.517	34.06033972
472.718	34.05547966
472.919	34.05025408
473.119	34.04471684
473.32	34.03849619
473.521	34.03304501
473.721	34.02847856
473.922	34.02301771
474.122	34.01690169
474.323	34.01035419
474.523	34.00535845
474.724	33.99938517
474.925	33.99289214
475.125	33.9858623
475.326	33.98005498
475.526	33.97297107
475.727	33.96639523
475.927	33.96060056
476.127	33.95423535
476.328	33.94752368
476.528	33.94038641
476.729	33.93346502
476.929	33.92558732
477.13	33.91844369
477.33	33.91109607
477.53	33.90388841
477.731	33.89567033
477.931	33.88777719
478.131	33.8787182
478.332	33.87106908
478.532	33.86169343
478.732	33.85229801
478.933	33.84290811
479.133	33.83431188
479.333	33.82606297
479.533	33.81586085
479.734	33.80682224
479.934	33.79713872
480.134	33.78830885
480.334	33.77902047
480.534	33.76922999
480.735	33.75935247
480.935	33.74895105
481.135	33.73891159
481.335	33.72969203
481.535	33.71948354
481.735	33.70975989
481.935	33.70042037
482.136	33.69018811
482.336	33.67971966
482.536	33.66954429
482.736	33.65907908
482.936	33.6483888
483.136	33.63898731
483.336	33.62728323
483.536	33.61543219
483.736	33.60335724
483.936	33.59068118
484.136	33.57896342
484.336	33.56606933
484.536	33.55268101
484.736	33.54147675
484.936	33.52913931
485.135	33.51691006
485.335	33.50294226
485.535	33.48928889
485.735	33.47667487
485.935	33.46309119
486.135	33.44963903
486.335	33.43586511
486.534	33.42217467
486.734	33.40814822
486.934	33.39379615
487.134	33.38050639
487.334	33.36561415
487.533	33.350692
487.733	33.33652456
487.933	33.32124169
488.133	33.306852
488.332	33.29227978
488.532	33.27756554
488.732	33.26207214
488.931	33.2462853
489.131	33.23094903
489.331	33.21459206
489.53	33.19762502
489.73	33.18149756
489.93	33.16473008
490.129	33.1477078
490.329	33.13038825
490.528	33.11348072
490.728	33.09617563
490.928	33.07997512
491.127	33.06193211
491.327	33.04492102
491.526	33.02795956
491.726	33.00923674
491.925	32.99169868
492.125	32.97240773
492.324	32.95356685
492.524	32.93447818
492.723	32.91670169
492.922	32.89786574
493.122	32.87896458
493.321	32.85938671
493.521	32.83904568
493.72	32.81888573
493.919	32.79848477
494.119	32.77938684
494.318	32.75874764
494.517	32.73709445
494.717	32.71660804
494.916	32.69512868
495.115	32.67292483
495.315	32.65141475
495.514	32.62869637
495.713	32.60634183
495.912	32.5845943
496.112	32.56231499
496.311	32.54029143
496.51	32.51663212
496.709	32.49373696
496.908	32.47013138
497.108	32.44457399
497.307	32.42009411
497.506	32.39444183
497.705	32.37017892
497.904	32.34479766
498.103	32.31923457
498.302	32.2940831
498.501	32.26934388
498.701	32.244324
498.9	32.21730683
499.099	32.19118776
499.298	32.16511004
499.497	32.1377593
499.696	32.10989626
499.895	32.0822196
500.094	32.05402162
500.293	32.02660467
500.492	31.99858654
500.691	31.97087327
500.89	31.94181318
501.088	31.91232161
501.287	31.88346715
501.486	31.85334839
501.685	31.82490267
501.884	31.79515431
502.083	31.76596781
502.282	31.73581789
502.481	31.70608362
502.679	31.67626513
502.878	31.64612377
503.077	31.61491744
503.276	31.58277145
503.475	31.55186074
503.673	31.52103846
503.872	31.48928418
504.071	31.4574147
504.27	31.42504778
504.468	31.39229823
504.667	31.36082687
504.866	31.3278713
505.064	31.29487924
505.263	31.26277344
505.462	31.22868374
505.66	31.19419496
505.859	31.16012392
506.058	31.12577687
506.256	31.09010055
506.455	31.05549642
506.653	31.02083852
506.852	30.98663613
507.05	30.95075936
507.249	30.91502044
507.448	30.87965662
507.646	30.84417824
507.845	30.80774711
508.043	30.77176086
508.242	30.73495984
508.44	30.69898975
508.638	30.66347563
508.837	30.62735282
509.035	30.58989159
509.234	30.55332866
509.432	30.51597968
509.631	30.47827764
509.829	30.44042412
510.027	30.40215636
510.226	30.36387755
510.424	30.32470979
510.622	30.28528284
510.821	30.24586727
511.019	30.20688714
511.217	30.16697862
511.415	30.12781357
511.614	30.0875489
511.812	30.04691272
512.01	30.00599308
512.208	29.96427019
512.407	29.92327376
512.605	29.88304255
512.803	29.84172074
513.001	29.80016492
513.199	29.75919612
513.398	29.7174272
513.596	29.6747993
513.794	29.63227425
513.992	29.59034965
514.19	29.54851907
514.388	29.5075074
514.586	29.4642411
514.784	29.42152277
514.982	29.37822635
515.18	29.33631202
515.378	29.29301151
515.576	29.25022008
515.774	29.20658608
515.972	29.16281652
516.17	29.11853495
516.368	29.07436478
516.566	29.03031797
516.764	28.98553746
516.962	28.94252723
517.16	28.89816508
517.358	28.85416291
517.556	28.80932104
517.754	28.76577903
517.952	28.72066956
518.149	28.67570845
518.347	28.63033458
518.545	28.5854832
518.743	28.54054549
518.941	28.49546465
519.138	28.45042975
519.336	28.4042646
519.534	28.35899984
519.732	28.31324228
519.929	28.26717544
520.127	28.2203992
520.325	28.17347321
520.523	28.12724011
520.72	28.08084464
520.918	28.03456213
521.116	27.98676094
521.313	27.9390202
521.511	27.8919053
521.709	27.84489577
521.906	27.79605899
522.104	27.74811831
522.301	27.70050371
522.499	27.65109637
522.696	27.60229481
522.894	27.5534868
523.092	27.50487092
523.289	27.45680828
523.487	27.40870333
523.684	27.36056014
523.882	27.31298485
524.079	27.26413452
524.276	27.21574947
524.474	27.16704101
524.671	27.11722833
524.869	27.0676893
525.066	27.017836
525.264	26.96869656
525.461	26.91925655
525.658	26.86877359
525.856	26.8189003
526.053	26.76809141
526.25	26.71863027
526.448	26.66753366
526.645	26.61637555
526.842	26.56661561
527.039	26.51529227
527.237	26.46520143
527.434	26.41432096
527.631	26.36179328
527.828	26.31096101
528.026	26.25891626
528.223	26.20792972
528.42	26.15529893
528.617	26.10424354
528.814	26.05276888
529.012	26.00016802
529.209	25.94843205
529.406	25.89648667
529.603	25.8443635
529.8	25.793363
529.997	25.741043
530.194	25.68948907
530.391	25.63732375
530.588	25.58533443
530.785	25.53267399
530.982	25.48041319
531.179	25.42778945
531.376	25.37511437
531.573	25.32365079
531.77	25.2706892
531.967	25.21892733
532.164	25.16693693
532.361	25.11478646
532.558	25.062003
532.755	25.00948819
532.952	24.95581881
533.149	24.90281758
533.346	24.85071805
533.543	24.79672488
533.739	24.74410464
533.936	24.69005708
534.133	24.63821592
534.33	24.58489317
534.527	24.53128411
534.723	24.479123
534.92	24.42567863
535.117	24.37233909
535.314	24.31928891
535.51	24.26580653
535.707	24.21175153
535.904	24.15896741
536.1	24.10483955
536.297	24.05131657
536.494	23.99706699
536.69	23.94402531
536.887	23.89149303
537.084	23.83716903
537.28	23.78316987
537.477	23.7283725
537.674	23.67388456
537.87	23.61959829
538.067	23.56614602
538.263	23.5112556
538.46	23.45645709
538.656	23.40238603
538.853	23.34679699
539.049	23.29245136
539.246	23.2374155
539.442	23.18371238
539.639	23.12958308
539.835	23.07626939
540.032	23.0216436
540.228	22.96712832
540.424	22.9129755
540.621	22.85864406
540.817	22.80474613
541.014	22.75049736
541.21	22.69672987
541.406	22.64163427
541.603	22.58734563
541.799	22.53274477
541.995	22.47832055
542.191	22.4234247
542.388	22.36885945
542.584	22.31414193
542.78	22.25961036
542.976	22.20606054
543.173	22.15079396
543.369	22.0966727
543.565	22.04148616
543.761	21.9869625
543.957	21.93359216
544.154	21.87937978
544.35	21.8244826
544.546	21.76983571
544.742	21.71599674
544.938	21.66120175
545.134	21.60719629
545.33	21.55285765
545.526	21.49806118
545.722	21.44386611
545.919	21.39034949
546.115	21.33540908
546.311	21.28080406
546.507	21.22635506
546.703	21.17303301
546.899	21.11874459
547.095	21.06525532
547.29	21.01057865
547.486	20.95672974
547.682	20.90363706
547.878	20.84996323
548.074	20.79455037
548.27	20.74029453
548.466	20.68665754
548.662	20.63276907
548.858	20.57902622
549.053	20.52567459
549.249	20.47243476
549.445	20.41843108
549.641	20.36520844
549.837	20.31277665
550.032	20.2604398
550.228	20.20727679
550.424	20.15481584
550.62	20.10225
550.815	20.05013213
551.011	19.99712741
551.207	19.94411786
551.402	19.89233837
551.598	19.84027746
551.794	19.78843273
551.989	19.73591663
552.185	19.68380462
552.381	19.63160107
552.576	19.57993708
552.772	19.52758788
552.967	19.47639722
553.163	19.42558602
553.359	19.37567071
553.554	19.3243179
553.75	19.27331779
553.945	19.2215643
554.141	19.17122474
554.336	19.12077364
554.532	19.07078299
554.727	19.02022407
554.922	18.9703576
555.118	18.92015272
555.313	18.86958357
555.509	18.81912763
555.704	18.77020661
555.899	18.72065647
556.095	18.67136854
556.29	18.62226065
556.486	18.57266442
556.681	18.5240891
556.876	18.47447222
557.071	18.42645635
557.267	18.37698217
557.462	18.32843451
557.657	18.28069212
557.853	18.2330043
558.048	18.18586919
558.243	18.13787449
558.438	18.09050797
558.633	18.04240082
558.829	17.99506036
559.024	17.9486149
559.219	17.90141472
559.414	17.85518981
559.609	17.80810985
559.804	17.76189213
559.999	17.71443653
560.194	17.66810857
560.39	17.62269308
560.585	17.57703035
560.78	17.53203776
560.975	17.48637955
561.17	17.44146902
561.365	17.3967975
561.56	17.35279461
561.755	17.30789743
561.95	17.2647989
562.145	17.22130472
562.34	17.17821838
562.535	17.13505293
562.729	17.09193784
562.924	17.04906833
563.119	17.00558497
563.314	16.96248943
563.509	16.92058148
563.704	16.87768988
563.899	16.83641327
564.093	16.79443465
564.288	16.75250336
564.483	16.71144249
564.678	16.66972904
564.873	16.62854291
565.067	16.58858201
565.262	16.54787449
565.457	16.50771648
565.652	16.46816127
565.846	16.42918483
566.041	16.38954495
566.236	16.34943511
566.43	16.31011875
566.625	16.27155365
566.82	16.23257256
567.014	16.19483102
567.209	16.157322
567.404	16.11879623
567.598	16.08040607
567.793	16.04303198
567.987	16.00551498
568.182	15.96742626
568.376	15.93113735
568.571	15.89501464
568.765	15.85873214
568.96	15.82245522
569.154	15.78568785
569.349	15.75007179
569.543	15.71395369
569.738	15.67850795
569.932	15.64430596
570.127	15.60921671
570.321	15.57407426
570.515	15.53994934
570.71	15.50604262
570.904	15.47224708
571.098	15.43855373
571.293	15.40487009
571.487	15.37141389
571.681	15.33905644
571.876	15.30640555
572.07	15.27444762
572.264	15.2425198
572.458	15.2106381
572.653	15.17857264
572.847	15.14784121
573.041	15.11602404
573.235	15.08500715
573.43	15.05335802
573.624	15.02330858
573.818	14.99319292
574.012	14.96212496
574.206	14.93214161
574.4	14.9025232
574.594	14.87272963
574.788	14.84349926
574.983	14.81450772
575.177	14.78490857
575.371	14.75661439
575.565	14.72848116
575.759	14.70062382
575.953	14.67269123
576.147	14.6443178
576.341	14.61658615
576.535	14.58951181
576.729	14.56234114
576.923	14.5355359
577.117	14.50882652
577.31	14.4819974
577.504	14.45553435
577.698	14.42923476
577.892	14.40291149
578.086	14.37733202
578.28	14.35170801
578.474	14.32679841
578.668	14.3019127
578.861	14.27655769
579.055	14.25092217
579.249	14.2269323
579.443	14.20329047
579.636	14.17875855
579.83	14.15518249
580.024	14.12992019
580.218	14.10694283
580.411	14.08335351
580.605	14.05975821
580.799	14.03729052
580.992	14.01397912
581.186	13.99066819
581.38	13.96829095
581.573	13.94601353
581.767	13.9235295
581.961	13.90180714
582.154	13.88039505
582.348	13.85887528
582.541	13.83691171
582.735	13.81564023
582.928	13.79443251
583.122	13.77326232
583.315	13.75206345
583.509	13.73118674
583.702	13.71041203
583.896	13.690211
584.089	13.66945582
584.283	13.64957621
584.476	13.63061162
584.67	13.61067645
584.863	13.59177364
585.056	13.57187824
585.25	13.55327609
585.443	13.53476905
585.636	13.51493551
585.83	13.4954447
586.023	13.47660604
586.216	13.45808873
586.41	13.4392661
586.603	13.4209257
586.796	13.40227315
586.989	13.38373228
587.183	13.36598443
587.376	13.34875814
587.569	13.33097009
587.762	13.31335536
587.955	13.29606875
588.149	13.2777457
588.342	13.26103885
588.535	13.24436193
588.728	13.22748013
588.921	13.20954712
589.114	13.19262627
589.307	13.1757478
589.5	13.15924832
589.693	13.14307947
589.886	13.12612464
590.08	13.11031061
590.273	13.09518904
590.466	13.07974655
590.659	13.06369911
590.852	13.04812378
591.044	13.03206761
591.237	13.01609482
591.43	13.00106672
591.623	12.98559775
591.816	12.97054603
592.009	12.95569853
592.202	12.94017622
592.395	12.92417565
592.588	12.91038749
592.781	12.89581533
592.973	12.8808792
593.166	12.86640556
593.359	12.85219332
593.552	12.83757639
593.745	12.82407174
593.937	12.80882781
594.13	12.79454021
594.323	12.78049932
594.515	12.76698222
594.708	12.75259887
594.901	12.73875008
595.094	12.72520792
595.286	12.71138753
595.479	12.69800596
595.672	12.68390829
595.864	12.67004707
596.057	12.65635525
596.249	12.64316201
596.442	12.62954625
596.635	12.61664504
596.827	12.60191254
597.02	12.58889514
597.212	12.575553
597.405	12.56277986
597.597	12.54934686
597.79	12.53559019
597.982	12.52240767
598.175	12.5101762
598.367	12.49706005
598.559	12.48395928
598.752	12.47046826
598.944	12.45843032
599.137	12.44550006
599.329	12.43259288
599.521	12.42026239
599.714	12.40740921
599.906	12.39461513
600.098	12.38173571
600.291	12.36967673
600.483	12.35583701
600.675	12.34378188
600.868	12.3318025
601.06	12.31870158
601.252	12.3053578
601.444	12.29246598
601.637	12.28021105
601.829	12.26754292
602.021	12.25586759
602.213	12.24331694
602.405	12.23113365
602.597	12.219968
602.789	12.20744307
602.982	12.19624507
603.174	12.18449852
603.366	12.17312228
603.558	12.16233869
603.75	12.15016103
603.942	12.13936448
604.134	12.12742778
604.326	12.11626001
604.518	12.10539588
604.71	12.09327701
604.902	12.08170511
605.094	12.0712593
605.286	12.06098401
605.478	12.04953281
605.67	12.0385578
605.862	12.0283308
606.054	12.01736417
606.246	12.007087
606.437	11.99602549
606.629	11.98532747
606.821	11.97423678
607.013	11.96397307
607.205	11.95312465
607.397	11.94258139
607.588	11.93174006
607.78	11.92160691
607.972	11.91157449
608.164	11.90140718
608.355	11.89177994
608.547	11.8819224
608.739	11.87115468
608.93	11.86046753
609.122	11.85036087
609.314	11.83970365
609.505	11.82978236
609.697	11.81945619
609.889	11.81087546
610.08	11.80078329
610.272	11.79168844
610.463	11.78217053
610.655	11.77210583
610.847	11.76291653
611.038	11.7545766
611.23	11.74452807
611.421	11.73566752
611.613	11.72676001
611.804	11.71796343
611.996	11.71021738
612.187	11.70105966
612.379	11.6921323
612.57	11.68347041
612.761	11.67516224
612.953	11.66611253
613.144	11.65728012
613.336	11.64957661
613.527	11.64115957
613.718	11.63291184
613.91	11.62498861
614.101	11.61612607
614.292	11.60689682
614.483	11.59836618
614.675	11.58962307
614.866	11.58223099
615.057	11.57500257
615.248	11.56616965
615.44	11.55905681
615.631	11.55045631
615.822	11.54348108
616.013	11.53559498
616.204	11.52870143
616.396	11.52081469
616.587	11.51434876
616.778	11.50867846
616.969	11.50247983
617.16	11.49569052
617.351	11.48847562
617.542	11.48188459
617.733	11.47578938
617.924	11.46834891
618.115	11.46078949
618.306	11.45480386
618.497	11.4484067
618.688	11.44286194
618.879	11.43613185
619.07	11.4300657
619.261	11.42449447
619.452	11.41802652
619.643	11.41300438
619.834	11.40808694
620.025	11.40277232
620.216	11.39628047
620.407	11.39128874
620.597	11.38604036
620.788	11.38083932
620.979	11.3757874
621.17	11.37029239
621.361	11.3651735
621.551	11.35918118
621.742	11.3543811
621.933	11.34984971
622.124	11.34413216
622.314	11.34035487
622.505	11.3361589
622.696	11.33152292
622.886	11.32661732
623.077	11.32144364
623.268	11.31727887
623.458	11.31261123
623.649	11.30777796
623.84	11.30223354
624.03	11.29730472
624.221	11.29384374
624.411	11.28963339
624.602	11.28581545
624.792	11.28157219
624.983	11.27749834
625.173	11.2739813
625.364	11.27032484
625.554	11.26651331
625.745	11.26441639
625.935	11.26055848
626.126	11.25706482
626.316	11.25368023
626.507	11.25053229
626.697	11.24732927
626.887	11.2441369
627.078	11.24089114
627.268	11.23869274
627.458	11.23639392
627.649	11.23383461
627.839	11.23110755
628.029	11.22775312
628.22	11.22514163
628.41	11.22340002
628.6	11.22112813
628.79	11.21910278
628.981	11.21661972
629.171	11.21516924
629.361	11.21278437
629.551	11.21035976
629.741	11.20894579
629.932	11.20651512
630.122	11.20557746
630.312	11.20377747
630.502	11.20170041
630.692	11.20025492
630.882	11.19870065
631.072	11.19766235
631.262	11.19636985
631.452	11.19542246
631.642	11.19362841
631.832	11.19243141
632.022	11.19074629
632.212	11.18994516
632.402	11.18900162
632.592	11.18794803
632.782	11.18681996
632.972	11.18532321
633.162	11.18453317
633.352	11.18423679
633.542	11.18439717
633.732	11.18362558
633.922	11.18197285
634.111	11.1818547
634.301	11.18169489
634.491	11.18085973
634.681	11.18058472
634.871	11.18035175
635.06	11.18004842
635.25	11.18176993
635.44	11.18087467
635.63	11.18119785
635.819	11.18192504
636.009	11.18257037
636.199	11.18340372
636.388	11.18360207
636.578	11.18263533
636.768	11.1827748
636.957	11.1837348
637.147	11.18447767
637.337	11.18620581
637.526	11.18752325
637.716	11.18888077
637.905	11.18888349
638.095	11.19084972
638.284	11.19245971
638.474	11.19487531
638.663	11.19665837
638.853	11.20033822
639.042	11.20216676
639.232	11.20204852
639.421	11.20439212
639.611	11.20661686
639.8	11.20847991
639.99	11.21109826
640.179	11.21269987
640.368	11.21378441
640.558	11.21585619
640.747	11.21779681
640.936	11.21976965
641.126	11.22201717
641.315	11.22383925
641.504	11.22726179
641.694	11.2292869
641.883	11.23142597
642.072	11.2347023
642.261	11.23580418
642.451	11.23894366
642.64	11.24247765
642.829	11.24438871
643.018	11.24797262
643.207	11.25165662
643.397	11.25460012
643.586	11.25727105
643.775	11.26085181
643.964	11.26297089
644.153	11.26535009
644.342	11.26747084
644.531	11.27095431
644.72	11.27527026
644.909	11.27936673
645.098	11.28291593
645.287	11.28572147
645.476	11.28983246
645.665	11.2918369
645.854	11.295485
646.043	11.29964084
646.232	11.30356049
646.421	11.30761917
646.61	11.31168355
646.799	11.31531357
646.988	11.31946196
647.177	11.32438896
647.365	11.32843327
647.554	11.33354154
647.743	11.33678652
647.932	11.34078925
648.121	11.34405904
648.309	11.3475192
648.498	11.35064275
648.687	11.35401956
648.876	11.35751982
649.064	11.36018046
649.253	11.36322304
649.442	11.36778096
649.63	11.37190732
649.819	11.37693786
650.008	11.38223727
650.196	11.38537175
650.385	11.38947969
650.574	11.39368239
650.762	11.39770617
650.951	11.40224751
651.139	11.40746583
651.328	11.4118354
651.516	11.41510359
651.705	11.41933592
651.893	11.42300382
652.082	11.42665724
652.27	11.43185473
652.459	11.43613992
652.647	11.44092584
652.836	11.44543935
653.024	11.45013492
653.213	11.45443046
653.401	11.45889818
653.589	11.46301033
653.778	11.46824528
653.966	11.47146594
654.154	11.47635369
654.343	11.48113288
654.531	11.48511805
654.719	11.48851392
654.908	11.49102955
655.096	11.49378393
655.284	11.49785776
655.472	11.50229173
655.661	11.50600994
655.849	11.510373
656.037	11.51508822
656.225	11.51957921
656.413	11.52323071
656.601	11.52769198
656.79	11.53117611
656.978	11.53504211
657.166	11.53856925
657.354	11.5423738
657.542	11.54594855
657.73	11.54993222
657.918	11.55285868
658.106	11.55652712
658.294	11.56078811
658.482	11.5644619
658.67	11.56641567
658.858	11.56968702
659.046	11.573288
659.234	11.57665513
659.422	11.58039953
659.61	11.58445806
659.798	11.58673174
659.986	11.58984499
660.173	11.59482147
660.361	11.59805462
660.549	11.60115941
660.737	11.60471189
660.925	11.60864834
661.113	11.61137906
661.3	11.61313247
661.488	11.61681453
661.676	11.61934815
661.864	11.62322449
662.051	11.62620323
662.239	11.62881292
662.427	11.63145535
662.614	11.63578852
662.802	11.63860618
662.99	11.64208018
663.177	11.64415651
663.365	11.6473385
663.553	11.64932589
663.74	11.65128099
663.928	11.65393707
664.115	11.6553468
664.303	11.65825363
664.49	11.66153432
664.678	11.66514471
664.866	11.66775523
665.053	11.66961613
665.24	11.67118474
665.428	11.67412938
665.615	11.6758359
665.803	11.67841893
665.99	11.68109655
666.178	11.68246376
666.365	11.68312884
666.552	11.68332847
666.74	11.68403381
666.927	11.68668937
667.114	11.68886278
667.302	11.69098015
667.489	11.69209608
667.676	11.69237118
667.864	11.69391124
668.051	11.69407193
668.238	11.69549854
668.425	11.69635359
668.613	11.69620169
668.8	11.69646378
668.987	11.69580461
669.174	11.69652551
669.361	11.69673538
669.548	11.69747198
669.736	11.6964514
669.923	11.6967057
670.11	11.69549454
670.297	11.695504
670.484	11.69456543
670.671	11.69583311
670.858	11.69577578
671.045	11.69508431
671.232	11.69299894
671.419	11.69156156
671.606	11.69238763
671.793	11.69087911
671.98	11.6893082
672.167	11.68855293
672.354	11.68711628
672.541	11.68443657
672.728	11.68341578
672.915	11.68115644
673.101	11.67801443
673.288	11.676926
673.475	11.6760857
673.662	11.67268544
673.849	11.67139504
674.035	11.66904681
674.222	11.66616293
674.409	11.66455277
674.596	11.66287922
674.783	11.65931607
674.969	11.65683988
675.156	11.65274179
675.343	11.64935393
675.529	11.64606868
675.716	11.64329631
675.903	11.63870089
676.089	11.63495202
676.276	11.62893083
676.462	11.6249787
676.649	11.61985168
676.836	11.61517978
677.022	11.6117969
677.209	11.60714075
677.395	11.60276709
677.582	11.59727456
677.768	11.5916375
677.955	11.58745863
678.141	11.58326217
678.328	11.57728004
678.514	11.57200409
678.701	11.56563411
678.887	11.5595921
679.073	11.55250732
679.26	11.54710945
679.446	11.54108545
679.632	11.53484641
679.819	11.52909976
680.005	11.52199888
680.191	11.51486939
680.378	11.50723696
680.564	11.500454
680.75	11.49412794
680.936	11.48625964
681.123	11.47905964
681.309	11.47057282
681.495	11.46297368
681.681	11.45739064
681.867	11.44978802
682.054	11.44243912
682.24	11.4352433
682.426	11.42734144
682.612	11.41816218
682.798	11.40991577
682.984	11.40303137
683.17	11.39482713
683.356	11.38847866
683.542	11.38029731
683.728	11.37099991
683.914	11.36190424
684.1	11.35331955
684.286	11.3444462
684.472	11.33500415
684.658	11.32624932
684.844	11.31637605
685.03	11.30742715
685.216	11.29793998
685.402	11.28988672
685.588	11.2796111
685.774	11.2695789
685.96	11.26245882
686.145	11.25299235
686.331	11.24409093
686.517	11.23532901
686.703	11.22678185
686.889	11.21836849
687.074	11.20849283
687.26	11.19927599
687.446	11.18887121
687.631	11.17714854
687.817	11.16664553
688.003	11.15600494
688.189	11.14566836
688.374	11.13590235
688.56	11.12554401
688.745	11.11484326
688.931	11.10518797
689.117	11.09527901
689.302	11.0854334
689.488	11.07657374
689.673	11.0672162
689.859	11.05624346
690.044	11.04468315
690.23	11.03383313
690.415	11.02398641
690.601	11.01296722
690.786	11.00272925
690.972	10.99365231
691.157	10.98347686
691.343	10.9723846
691.528	10.96392969
691.713	10.95433419
691.899	10.94307491
692.084	10.93458903
692.269	10.92477337
692.455	10.91460048
692.64	10.90459704
692.825	10.89387526
693.011	10.88391985
693.196	10.87429658
693.381	10.86237805
693.566	10.8516664
693.752	10.84017008
693.937	10.8293758
694.122	10.8206981
694.307	10.8122045
694.492	10.80165167
694.678	10.79185884
694.863	10.78214724
695.048	10.77223165
695.233	10.76102818
695.418	10.75195338
695.603	10.74080066
695.788	10.73163468
695.973	10.72014892
696.158	10.71068545
696.343	10.69918627
696.528	10.68944592
696.713	10.68005776
696.898	10.67060032
697.083	10.66181485
697.268	10.65308125
697.453	10.64165819
697.638	10.631385
697.823	10.61904359
698.008	10.60874634
698.192	10.59825668
698.377	10.58809396
698.562	10.57865934
698.747	10.57071068
698.932	10.56018667
699.117	10.55122732
699.301	10.54372705
699.486	10.535602
699.671	10.52513363
699.856	10.51746644
700.04	10.50611796
700.225	10.49720903
700.41	10.48705719
700.594	10.47967188
700.779	10.47036766
700.964	10.46268866
701.148	10.45464472
701.333	10.44566833
701.517	10.43941876
701.702	10.42989264
701.887	10.41975075
702.071	10.40987949
702.256	10.4017871
702.44	10.39486383
702.625	10.38682186
702.809	10.3766476
702.994	10.36881958
703.178	10.36079456
703.362	10.35363138
703.547	10.34648559
703.731	10.33975197
703.916	10.33360937
704.1	10.32497307
704.284	10.31573666
704.469	10.30710316
704.653	10.29871941
704.837	10.29351356
705.022	10.28686612
705.206	10.28138043
705.39	10.2742922
705.575	10.2674517
705.759	10.26127769
705.943	10.25513907
706.127	10.24945354
706.311	10.24277259
706.496	10.23583857
706.68	10.22941868
706.864	10.22352615
707.048	10.21770933
707.232	10.21160372
707.416	10.20517258
707.6	10.19917938
707.785	10.19261985
707.969	10.1854915
708.153	10.18030217
708.337	10.1754599
708.521	10.17082851
708.705	10.16594085
708.889	10.15957655
709.073	10.15742189
709.257	10.15367364
709.441	10.14940803
709.624	10.14422605
709.808	10.14204453
709.992	10.1375285
710.176	10.13269209
710.36	10.1290901
710.544	10.1246108
710.728	10.1202676
710.912	10.11754664
711.095	10.11319575
711.279	10.10976707
711.463	10.10650442
711.647	10.10470993
711.83	10.09995965
712.014	10.09884845
712.198	10.09752044
712.382	10.0962741
712.565	10.09410539
712.749	10.09330426
712.933	10.09147987
713.116	10.08969237
713.3	10.08805098
713.483	10.08981601
713.667	10.08784613
713.851	10.08646169
714.034	10.08649507
714.218	10.08633461
714.401	10.08792711
714.585	10.08819294
714.768	10.08795474
714.952	10.08808421
715.135	10.08868847
715.319	10.09021156
715.502	10.09388971
715.686	10.09628881
715.869	10.09999431
716.052	10.10354284
716.236	10.1074411
716.419	10.10907443
716.602	10.11267294
716.786	10.1153276
716.969	10.1201185
717.152	10.12524405
717.336	10.13009402
717.519	10.1365327
717.702	10.14239273
717.885	10.14753325
718.069	10.15425463
718.252	10.1618951
718.435	10.1701333
718.618	10.1761497
718.801	10.18327407
718.985	10.19110389
719.168	10.20123446
719.351	10.20889349
719.534	10.21690578
719.717	10.22520557
719.9	10.23447474
720.083	10.24312584
720.266	10.25261427
720.449	10.26198555
720.632	10.2722852
720.815	10.28359699
720.998	10.29553981
721.181	10.30736371
721.364	10.3202169
721.547	10.33426064
721.73	10.34570406
721.913	10.36152008
722.096	10.37637542
722.279	10.39082691
722.461	10.40635342
722.644	10.42346419
722.827	10.44196366
723.01	10.45745637
723.193	10.47587984
723.376	10.49308773
723.558	10.5113997
723.741	10.53099179
723.924	10.55033804
724.107	10.56924479
724.289	10.58864928
724.472	10.60856687
724.655	10.63029206
724.837	10.65385673
725.02	10.67717147
725.203	10.70180867
725.385	10.72550872
725.568	10.74970014
725.75	10.77460402
725.933	10.80030048
726.115	10.82662468
726.298	10.85106454
726.481	10.87752395
726.663	10.90708591
726.845	10.93610573
727.028	10.96482415
727.21	10.99436347
727.393	11.02388659
727.575	11.05374262
727.758	11.08471588
727.94	11.11387528
728.122	11.14490167
728.305	11.17911968
728.487	11.21207047
728.67	11.24534298
728.852	11.28123355
729.034	11.31705975
729.216	11.352768
729.399	11.39109067
729.581	11.42838746
729.763	11.46746165
729.945	11.50568683
730.128	11.54673325
730.31	11.58666624
730.492	11.62807141
730.674	11.67145606
730.856	11.71243294
731.039	11.7521821
731.221	11.79507583
731.403	11.83804741
731.585	11.88205529
731.767	11.92755267
731.949	11.97519535
732.131	12.02267947
732.313	12.07051096
732.495	12.11717958
732.677	12.16522118
732.859	12.21730355
733.041	12.27103055
733.223	12.3225759
733.405	12.3729975
733.587	12.42431224
733.769	12.47817366
733.951	12.52969863
734.132	12.58328554
734.314	12.63779332
734.496	12.69008003
734.678	12.74495994
734.86	12.79721182
735.042	12.84943762
735.223	12.90293352
735.405	12.95564462
735.587	13.00695633
735.769	13.05817724
735.95	13.11136803
736.132	13.16122615
736.314	13.21037882
736.495	13.26331383
736.677	13.31363038
736.859	13.3643914
737.04	13.41414187
737.222	13.46629564
737.403	13.51502347
737.585	13.56550443
737.767	13.61732941
737.948	13.66869349
738.13	13.71906735
738.311	13.76831573
738.493	13.8184214
738.674	13.86983996
738.856	13.92208016
739.037	13.97141655
739.219	14.02206661
739.4	14.07225481
739.581	14.12409083
739.763	14.17525416
739.944	14.22762147
740.125	14.27884256
740.307	14.33227597
740.488	14.38602682
740.669	14.43972334
740.851	14.49432684
741.032	14.55094884
741.213	14.60632248
741.395	14.66213951
741.576	14.7186027
741.757	14.77725302
741.938	14.83574342
742.119	14.89718485
742.301	14.95785238
742.482	15.02106296
742.663	15.08536667
742.844	15.15009169
743.025	15.2170127
743.206	15.28325815
743.387	15.35210748
743.568	15.42249235
743.749	15.49408964
743.93	15.56715785
744.111	15.64239717
744.292	15.7185658
744.473	15.79694334
744.654	15.87499561
744.835	15.95261659
745.016	16.03264882
745.197	16.11703717
745.378	16.20044461
745.559	16.28476284
745.74	16.36775625
745.921	16.45655258
746.102	16.54298125
746.282	16.63353333
746.463	16.72357405
746.644	16.81548901
746.825	16.90881175
747.006	17.00408979
747.186	17.10079636
747.367	17.19735226
747.548	17.29418746
747.728	17.39395097
747.909	17.49134911
748.09	17.59260262
748.27	17.69431445
748.451	17.79628297
748.632	17.89911924
748.812	18.00208587
748.993	18.10665057
749.173	18.21266861
749.354	18.31837644
749.535	18.42483322
749.715	18.5322179
749.896	18.639244
750.076	18.744232
750.257	18.85411681
750.437	18.96443305
750.618	19.07514356
750.798	19.18693662
750.978	19.2944023
751.159	19.40672559
751.339	19.51988029
751.52	19.63213516
751.7	19.74681085
751.88	19.85976541
752.061	19.97119219
752.241	20.08567912
752.421	20.19537657
752.601	20.31001961
752.782	20.42656509
752.962	20.54084648
753.142	20.65480435
753.322	20.7703002
753.503	20.8861543
753.683	21.0026497
753.863	21.11780625
754.043	21.23393932
754.223	21.34987907
754.403	21.46693537
754.583	21.5832933
754.764	21.69689166
754.944	21.81175967
755.124	21.92993766
755.304	22.04541657
755.484	22.16126899
755.664	22.27699393
755.844	22.39514718
756.024	22.51460589
756.204	22.6329311
756.384	22.74863562
756.564	22.86918055
756.743	22.98597684
756.923	23.10403211
757.103	23.22305006
757.283	23.34080906
757.463	23.46011672
757.643	23.57753543
757.823	23.69768725
758.002	23.81424152
758.182	23.93494847
758.362	24.05149384
758.542	24.16746613
758.721	24.28318796
758.901	24.40157253
759.081	24.51969176
759.261	24.63322861
759.44	24.75033456
759.62	24.86752631
759.8	24.9827942
759.979	25.09947351
760.159	25.2136641
760.338	25.32770999
760.518	25.44568841
760.698	25.5637014
760.877	25.68050159
761.057	25.79849996
761.236	25.91366813
761.416	26.03002935
761.595	26.14357842
761.775	26.25899781
761.954	26.37274816
762.133	26.48652012
762.313	26.59912267
762.492	26.71257466
762.672	26.82882278
762.851	26.94008165
763.03	27.04949419
763.21	27.16064634
763.389	27.27849716
763.568	27.38786926
763.748	27.49844903
763.927	27.60989337
764.106	27.71875419
764.286	27.83044266
764.465	27.93939049
764.644	28.04693539
764.823	28.15636322
765.002	28.2648686
765.182	28.37222083
765.361	28.47563075
765.54	28.58588749
765.719	28.68898212
765.898	28.79416295
766.077	28.8979488
766.256	29.00255711
766.435	29.1037353
766.614	29.21005784
766.793	29.31115916
766.972	29.41104171
767.151	29.5115209
767.33	29.61479639
767.509	29.71168726
767.688	29.81095431
767.867	29.91020929
768.046	30.00707482
768.225	30.10335334
768.404	30.19896004
768.583	30.29563939
768.762	30.39309425
768.94	30.48710747
769.119	30.57666593
769.298	30.66526044
769.477	30.75931379
769.656	30.8499187
769.834	30.9381029
770.013	31.02574812
770.192	31.11856724
770.37	31.20435891
770.549	31.29206894
770.728	31.3753277
770.906	31.4602861
771.085	31.54195017
771.264	31.62640224
771.442	31.70354555
771.621	31.78087046
771.799	31.85787159
771.978	31.93298885
772.157	32.00425832
772.335	32.07372235
772.514	32.14483614
772.692	32.21732485
772.871	32.28559987
773.049	32.35174038
773.228	32.41767244
773.406	32.48055033
773.584	32.54323436
773.763	32.60147764
773.941	32.66169994
774.119	32.71685741
774.298	32.76710315
774.476	32.82082866
774.655	32.87452585
774.833	32.9240401
775.011	32.97198863
775.189	33.02311497
775.368	33.06646892
775.546	33.11081381
775.724	33.15247351
775.902	33.19413308
776.08	33.2333799
776.259	33.27285108
776.437	33.30686206
776.615	33.34397823
776.793	33.38182168
776.971	33.4164684
777.149	33.45038992
777.327	33.48607145
777.505	33.51841036
777.683	33.55107849
777.861	33.58187804
778.04	33.61205011
778.218	33.64050491
778.395	33.67063614
778.573	33.69950674
778.751	33.72700924
778.929	33.75154859
779.107	33.77934548
779.285	33.80828779
779.463	33.83812339
779.641	33.86715685
779.819	33.89261485
779.997	33.91735559
780.174	33.94658196
780.352	33.97177251
780.53	33.99821639
780.708	34.0245301
780.886	34.05267265
781.063	34.07854179
781.241	34.10248082
781.419	34.12841377
781.596	34.15635131
781.774	34.18290309
781.952	34.20927364
782.129	34.23528707
782.307	34.26402272
782.485	34.28506043
782.662	34.30842031
782.84	34.33286763
783.017	34.35206725
783.195	34.37859617
783.372	34.40507132
783.55	34.42966486
783.727	34.45466952
783.905	34.48325646
784.082	34.50447966
784.26	34.52463492
784.437	34.5504898
784.615	34.57464947
784.792	34.59873451
784.969	34.62303874
785.147	34.64482479
785.324	34.66612551
785.501	34.68881023
785.679	34.71121901
785.856	34.73765945
786.033	34.76175342
786.211	34.782398
786.388	34.8029793
786.565	34.82375321
786.742	34.84375327
786.92	34.86733161
787.097	34.88928821
787.274	34.91378838
787.451	34.93443168
787.628	34.9513828
787.805	34.97259925
787.982	34.99699797
788.16	35.01623873
788.337	35.0395662
788.514	35.05892369
788.691	35.07473554
788.868	35.0930266
789.045	35.11234128
789.222	35.1355039
789.399	35.14891671
789.576	35.16655046
789.753	35.18454243
789.93	35.19881842
790.106	35.2139438
790.283	35.23119194
790.46	35.24854404
790.637	35.2681213
790.814	35.28462877
790.991	35.29816374
791.168	35.31665845
791.344	35.33744204
791.521	35.35131517
791.698	35.36851316
791.875	35.38035871
792.051	35.39277482
792.228	35.40979976
792.405	35.42020123
792.581	35.43763838
792.758	35.45700076
792.935	35.46944785
793.111	35.48587388
793.288	35.49873817
793.465	35.50961291
793.641	35.5179608
793.818	35.53111722
793.994	35.54264037
794.171	35.55458222
794.347	35.56849681
794.524	35.58583587
794.7	35.59874904
794.877	35.61310229
795.053	35.62659002
795.23	35.63603085
795.406	35.64600328
795.583	35.66112589
795.759	35.66875457
795.935	35.68531162
796.112	35.70264421
796.288	35.71234531
796.464	35.72284111
796.641	35.73182032
796.817	35.74022595
796.993	35.74816707
797.169	35.75777686
797.346	35.77061534
797.522	35.77610187
797.698	35.78573213
797.874	35.79807751
798.051	35.80920552
798.227	35.8225271
798.403	35.82925999
798.579	35.8446254
798.755	35.85521773
798.931	35.86358803
799.107	35.86975607
799.283	35.88359138
799.459	35.89470214
799.635	35.90482837
799.811	35.91663901
799.987	35.9245909
800.163	35.9368618
800.339	35.94756656
800.515	35.95741124
800.691	35.96544705
800.867	35.96728841
801.043	35.9783384
801.219	35.97850536
801.395	35.98778223
801.571	35.9941239
801.746	36.00329045
801.922	36.00806563
802.098	36.0077658
802.274	36.01351406
802.45	36.01780411
802.625	36.02923585
802.801	36.04485706
802.977	36.04936287
803.152	36.05756053
803.328	36.06794522
803.504	36.07449034
803.679	36.07980858
803.855	36.08637352
804.031	36.08821583
804.206	36.08872682
804.382	36.10102928
804.557	36.10790169
804.733	36.12341912
804.909	36.12643699
805.084	36.130673
805.26	36.1391716
805.435	36.15355113
805.61	36.1569162
805.786	36.15330644
805.961	36.16229284
806.137	36.1674752
806.312	36.17375889
806.488	36.17801216
806.663	36.18745561
806.838	36.1946392
807.014	36.19866882
807.189	36.20178754
807.364	36.20263813
807.54	36.2066799
807.715	36.21271167
807.89	36.22458802
808.065	36.2350881
808.241	36.22913432
808.416	36.2342013
808.591	36.24110338
808.766	36.25036053
808.941	36.25627022
809.116	36.26095046
809.291	36.27216557
809.467	36.26489115
809.642	36.26369315
809.817	36.2753795
809.992	36.27995878
810.167	36.28544153
810.342	36.29421449
810.517	36.30085125
810.692	36.29710734
810.867	36.30956267
811.042	36.3222857
811.217	36.33118647
811.392	36.3424332
811.567	36.34854284
811.741	36.36119633
811.916	36.37161812
812.091	36.37852547
812.266	36.38289148
812.441	36.39641779
812.616	36.40149719
812.79	36.40871003
812.965	36.41982955
813.14	36.42062679
813.315	36.43367499
813.489	36.44424721
813.664	36.45689106
813.839	36.46728897
814.013	36.46516804
814.188	36.4729994
814.363	36.48673086
814.537	36.49313537
814.712	36.49626782
814.887	36.4976359
815.061	36.49547446
815.236	36.50134336
815.41	36.51414908
815.585	36.51009902
815.759	36.5124662
815.934	36.51543231
816.108	36.52149188
816.283	36.52326137
816.457	36.5233054
816.631	36.52588221
816.806	36.53777644
816.98	36.53705177
817.155	36.5446309
817.329	36.54722718
817.503	36.55359077
817.678	36.55103722
817.852	36.5709129
818.026	36.58352874
818.201	36.59001686
818.375	36.6062015
818.549	36.60181918
818.723	36.59102541
818.897	36.58890535
819.072	36.59480204
819.246	36.59571581
819.42	36.60259035
819.594	36.61462768
819.768	36.62730332
819.942	36.62818936
820.116	36.63604302
820.29	36.63785613
820.465	36.64611821
820.639	36.65632093
820.813	36.66791243
820.987	36.68092322
821.161	36.67422697
821.335	36.68659893
821.509	36.70604105
821.682	36.71183963
821.856	36.7168294
822.03	36.71724913
822.204	36.72868682
822.378	36.73163156
822.552	36.73629149
822.726	36.74505324
822.9	36.75881016
823.073	36.76413778
823.247	36.75859797
823.421	36.76284479
823.595	36.77603392
823.768	36.7830716
823.942	36.78719575
824.116	36.79506689
824.289	36.79654443
824.463	36.78855119
824.637	36.80155651
824.81	36.80477499
824.984	36.81845185
825.158	36.83103209
825.331	36.83087398
825.505	36.83901619
825.678	36.8511709
825.852	36.85495235
826.025	36.86944947
826.199	36.87925378
826.372	36.8850432
826.546	36.88636893
826.719	36.89133551
826.893	36.88539908
827.066	36.889403
827.24	36.89700702
827.413	36.90876129
827.586	36.924253
827.76	36.9180084
827.933	36.89823644
828.106	36.90639097
828.28	36.90746669
828.453	36.90966461
828.626	36.9186025
828.799	36.91986422
828.973	36.93408217
829.146	36.93759803
829.319	36.9361171
829.492	36.9531831
829.665	36.96531533
829.839	36.96029424
830.012	36.95334157
830.185	36.96959037
830.358	36.98720753
830.531	36.99127339
830.704	36.99109018
830.877	36.99413119
831.05	36.99471664
831.223	36.99518538
831.396	37.0104693
831.569	37.01094079
831.742	37.01442491
831.915	37.01475602
832.088	37.02181088
832.261	37.01808685
832.434	37.01579025
832.607	37.03793954
832.779	37.05091772
832.952	37.04467259
833.125	37.04450199
833.298	37.03686176
833.471	37.04522409
833.643	37.03591484
833.816	37.03454382
833.989	37.04571457
834.162	37.04088677
834.334	37.03959568
834.507	37.04490879
834.68	37.04934085
834.852	37.0521767
835.025	37.05996838
835.198	37.06745083
835.37	37.0706333
835.543	37.05776754
835.715	37.07182753
835.888	37.09397512
836.061	37.09967774
836.233	37.10939169
836.406	37.10827056
836.578	37.12696495
836.751	37.12207404
836.923	37.12354919
837.095	37.14886966
837.268	37.12891108
837.44	37.15525289
837.613	37.14518587
837.785	37.14465234
837.957	37.14192615
838.13	37.15779881
838.302	37.17136097
838.474	37.17929491
838.647	37.18260541
838.819	37.18550266
838.991	37.20231829
839.163	37.21330086
839.336	37.22031596
839.508	37.21063279
839.68	37.21028368
839.852	37.22898748
840.024	37.23444774
840.196	37.24566184
840.368	37.23975935
840.541	37.24926638
840.713	37.26289256
840.885	37.25333698
841.057	37.24571644
841.229	37.25571918
841.401	37.24225409
841.573	37.24078987
841.745	37.21990774
841.917	37.23874159
842.089	37.24785767
842.261	37.24027271
842.432	37.25438542
842.604	37.26134323
842.776	37.25564144
842.948	37.26061988
843.12	37.27017652
843.292	37.25625665
843.464	37.2630732
843.635	37.25766269
843.807	37.26438639
843.979	37.26330768
844.151	37.26102502
844.322	37.26274963
844.494	37.28587185
844.666	37.29118336
844.837	37.30109908
845.009	37.30670936
845.181	37.31560285
845.352	37.32283111
845.524	37.35705141
845.695	37.3448592
845.867	37.35391811
846.039	37.36432888
846.21	37.36285941
846.382	37.36254787
846.553	37.34770172
846.725	37.3691482
846.896	37.38168761
847.068	37.36803488
847.239	37.37236219
847.41	37.37937129
847.582	37.37597906
847.753	37.38887679
847.925	37.40252349
848.096	37.38024398
848.267	37.37716354
848.439	37.38137692
848.61	37.39308758
848.781	37.39146408
848.952	37.39519623
849.124	37.4119665
849.295	37.40835415
849.466	37.42315888
849.637	37.41688652
849.808	37.4198311
849.98	37.45621406
850.151	37.44905015
850.322	37.46143512
850.493	37.47668377
850.664	37.48771333
850.835	37.47946108
851.006	37.47982622
851.177	37.50142309
851.348	37.5117751
851.519	37.48558276
851.69	37.48744422
851.861	37.47515906
852.032	37.49045678
852.203	37.49003546
852.374	37.50010198
852.545	37.5275907
852.716	37.52631382
852.887	37.54798157
853.057	37.55041327
853.228	37.55212047
853.399	37.5694858
853.57	37.57992426
853.741	37.59215753
853.911	37.59690795
854.082	37.61441473
854.253	37.61476967
854.424	37.62058105
854.594	37.61759198
854.765	37.6242504
854.936	37.64624626
855.106	37.64285613
855.277	37.63294828
855.447	37.62297652
855.618	37.62265917
855.789	37.63733714
855.959	37.62890252
856.13	37.62807457
856.3	37.64258989
856.471	37.65837086
856.641	37.67723213
856.812	37.67157375
856.982	37.67839606
857.153	37.66891978
857.323	37.66036457
857.493	37.67706037
857.664	37.68242534
857.834	37.68055328
858.004	37.70870926
858.175	37.71728394
858.345	37.70813664
858.515	37.75004205
858.686	37.76182813
858.856	37.79660239
859.026	37.81135027
859.196	37.82994134
859.367	37.84553694
859.537	37.83844354
859.707	37.83856552
859.877	37.86191116
860.047	37.86390845
860.217	37.85882501
860.387	37.86000867
860.558	37.85369727
860.728	37.85864693
860.898	37.85841291
861.068	37.89709895
861.238	37.85731369
861.408	37.86783149
861.578	37.88252906
861.748	37.90757012
861.918	37.90444173
862.088	37.90189059
862.257	37.91540018
862.427	37.96172519
862.597	38.00641277
862.767	38.03319215
862.937	38.04355449
863.107	38.07680461
863.277	38.0804082
863.446	38.07959788
863.616	38.06945021
863.786	38.11357079
863.956	38.08702232
864.125	38.03976907
864.295	38.08179565
864.465	38.08422888
864.634	38.06507295
864.804	38.07522104
864.974	38.06334806
865.143	38.09306542
865.313	38.12325439
865.482	38.12795359
865.652	38.12589544
865.822	38.13121657
865.991	38.18982642
866.161	38.25060158
866.33	38.28904065
866.5	38.28563783
866.669	38.27820152
866.838	38.29167336
867.008	38.28984825
867.177	38.26175517
867.347	38.32278078
867.516	38.38488376
867.685	38.40996853
867.855	38.39526658
868.024	38.42459824
868.193	38.45839402
868.363	38.50313078
868.532	38.50708292
868.701	38.55239396
868.87	38.5513893
869.04	38.53563331
869.209	38.56655071
869.378	38.54493788
869.547	38.51158386
869.716	38.50877915
869.885	38.5286324
870.055	38.50048633
870.224	38.4769384
870.393	38.49813502
870.562	38.51159757
870.731	38.53568967
870.9	38.52440392
871.069	38.5565719
871.238	38.57151784
871.407	38.58035345
871.576	38.64959221
871.745	38.6192052
871.914	38.62513613
872.083	38.61535582
872.251	38.64193543
872.42	38.6332276
872.589	38.59327047
872.758	38.59890701
872.927	38.61879408
873.096	38.62399489
873.264	38.63939342
873.433	38.64915649
873.602	38.59990069
873.771	38.66164239
873.939	38.62947885
874.108	38.6171123
874.277	38.60866563
874.445	38.60397803
874.614	38.65508362
874.783	38.68335714
874.951	38.67897269
875.12	38.72664033
875.288	38.77353788
875.457	38.77580472
875.625	38.80364313
875.794	38.81125432
875.962	38.87208095
876.131	38.83584443
876.299	38.85950168
876.468	38.90595987
876.636	38.90831789
876.805	38.92209064
876.973	38.94848797
877.141	38.90885868
877.31	38.90385473
877.478	38.94705811
877.647	38.93478546
877.815	38.94761319
877.983	38.92973153
878.151	38.95293549
878.32	38.97220056
878.488	39.01744031
878.656	39.00605842
878.824	39.02152112
878.992	39.01998964
879.161	38.99062185
879.329	38.95967843
879.497	38.93134818
879.665	38.83265661
879.833	38.89127695
880.001	38.88225986
880.169	38.88629552
880.337	38.92241649
880.505	38.9782792
880.673	39.04684419
880.841	39.05127567
881.009	39.02075891
881.177	39.08009075
881.345	39.07233125
881.513	39.07852204
881.681	39.09613346
881.849	39.06707502
882.017	39.0499969
882.185	39.12258337
882.352	39.09941868
882.52	39.07915353
882.688	38.98221507
882.856	39.06194565
883.024	39.11355382
883.191	39.12410788
883.359	39.15648621
883.527	39.15475368
883.694	39.20574759
883.862	39.26559787
884.03	39.19811064
884.197	39.26277694
884.365	39.20166149
884.533	39.22161003
884.7	39.21913001
884.868	39.24551293
885.035	39.34066729
885.203	39.34961286
885.37	39.3577156
885.538	39.40843074
885.705	39.42993055
885.873	39.56486642
886.04	39.50400379
886.208	39.56088745
886.375	39.55833539
886.542	39.42486395
886.71	39.44633664
886.877	39.408644
