Data from pano_Reflection_00001.txt Node
Date: Thu Apr 11 13:46:26 AEST 2024
User: uqkchene_local
Spectrometer: USB4E02642
Trigger mode: 4
Integration Time (sec): 2.541000E-2
Scans to average: 101
Electric dark correction enabled: true
Nonlinearity correction enabled: false
Boxcar width: 10
XAxis mode: Wavelengths
Number of Pixels in Spectrum: 3648
>>>>>Begin Spectral Data<<<<<
179.217	139.30320151
179.432	129.20847269
179.647	85.66362715
179.862	69.21666667
180.077	80.6790425
180.293	59.62407804
180.508	52.34419668
180.723	73.23030907
180.938	44.00335552
181.153	38.82632633
181.368	34.98154751
181.583	32.00330215
181.798	26.43328368
182.013	23.25660607
182.228	21.5971897
182.443	21.94147097
182.658	21.64785553
182.873	19.79737884
183.088	20.223583
183.303	17.16707972
183.518	16.19762198
183.733	17.39219339
183.948	15.96699708
184.162	16.96516077
184.377	16.44650773
184.592	15.1510594
184.807	14.31797861
185.022	14.63437566
185.237	14.16393613
185.452	12.59654855
185.667	11.32989956
185.882	10.15172999
186.096	10.68625344
186.311	10.36595927
186.526	10.61012404
186.741	10.14112594
186.956	10.17277514
187.17	9.09058042
187.385	8.73963003
187.6	8.30831296
187.815	9.86837384
188.03	9.20417883
188.244	8.96850753
188.459	8.53648639
188.674	8.43872656
188.889	8.513743
189.103	8.59761214
189.318	9.93125778
189.533	10.23992465
189.747	10.71913094
189.962	11.16845316
190.177	11.04061799
190.391	11.45557112
190.606	9.96464468
190.821	10.25924915
191.035	8.86159549
191.25	8.68844769
191.465	7.32061045
191.679	8.2875138
191.894	7.78013483
192.109	7.4130468
192.323	6.6177289
192.538	6.67564409
192.752	5.74571119
192.967	6.50758439
193.181	5.53677615
193.396	5.68157347
193.611	5.84703396
193.825	4.63871589
194.04	3.75746473
194.254	2.92413807
194.469	2.76036757
194.683	3.14296368
194.898	3.02407455
195.112	2.18584591
195.327	2.04097343
195.541	2.95894029
195.756	2.13594718
195.97	4.22567382
196.184	4.39882549
196.399	5.05608918
196.613	5.01079279
196.828	4.99902653
197.042	6.18090046
197.257	6.69264486
197.471	5.56387554
197.685	5.79136727
197.9	5.65193655
198.114	6.12775539
198.328	5.76272043
198.543	5.71281864
198.757	5.72070655
198.971	6.00215506
199.186	6.81183221
199.4	7.13739882
199.614	7.61954729
199.829	8.01974245
200.043	9.11624007
200.257	9.4023475
200.471	8.39256697
200.686	8.16900987
200.9	8.60604325
201.114	8.77446608
201.328	8.26757898
201.543	7.14060979
201.757	7.06662721
201.971	6.55523213
202.185	6.64667249
202.399	5.41883859
202.614	4.86763323
202.828	5.32599123
203.042	5.82816127
203.256	6.00245535
203.47	5.97046065
203.684	4.86615058
203.899	3.74068119
204.113	3.87298145
204.327	3.99128045
204.541	3.09936234
204.755	4.87600059
204.969	4.21400547
205.183	4.08176193
205.397	3.23161977
205.611	4.15094154
205.825	4.57558443
206.039	4.75196356
206.253	5.32961563
206.467	6.04049775
206.681	5.94111059
206.895	7.41390895
207.109	8.00744442
207.323	8.31258849
207.537	8.344317
207.751	8.16176674
207.965	8.82086503
208.179	8.41403959
208.393	9.10362844
208.607	9.13662371
208.821	9.19853098
209.035	8.60829824
209.249	7.60005839
209.463	7.94373811
209.677	8.09732621
209.891	7.74994717
210.104	6.32716758
210.318	6.5808265
210.532	6.54967109
210.746	5.91985757
210.96	6.585238
211.174	6.35591297
211.387	6.48054791
211.601	5.81323128
211.815	5.57228776
212.029	5.01084475
212.243	4.89865025
212.456	3.25927559
212.67	3.94070792
212.884	3.52102024
213.098	3.25437645
213.311	3.17603499
213.525	3.86079827
213.739	4.77715969
213.953	5.27423786
214.166	4.600692
214.38	4.38902486
214.594	6.15520977
214.807	6.77186773
215.021	6.69835782
215.235	7.14231661
215.448	6.14734357
215.662	6.98581929
215.876	6.18412704
216.089	6.50180804
216.303	5.81244293
216.516	6.23069191
216.73	6.64747316
216.944	8.17213421
217.157	7.34774192
217.371	8.24280196
217.584	8.75028096
217.798	8.12268483
218.011	7.10520357
218.225	5.55819456
218.439	4.3761467
218.652	4.50817022
218.866	4.12320536
219.079	3.02956948
219.293	2.12840962
219.506	2.46047046
219.719	1.90727886
219.933	2.95132426
220.146	2.74624696
220.36	3.25603344
220.573	3.73816345
220.787	4.55065981
221	4.82620309
221.214	5.10351662
221.427	3.5145823
221.64	3.44084552
221.854	3.07108477
222.067	3.45823817
222.28	4.30209115
222.494	3.65226666
222.707	4.21962587
222.92	6.3273672
223.134	6.88137226
223.347	7.9099302
223.56	8.43176117
223.774	8.74466352
223.987	9.74865799
224.2	9.8748516
224.414	8.97624055
224.627	8.99668954
224.84	8.73360309
225.053	9.21159132
225.267	8.78719771
225.48	7.70170497
225.693	7.2552331
225.906	7.98299293
226.119	8.48857367
226.333	7.64441507
226.546	6.89509494
226.759	5.84112358
226.972	6.62020443
227.185	6.27876455
227.398	4.59130295
227.612	3.96724254
227.825	3.69038726
228.038	3.16840317
228.251	3.03757103
228.464	2.20002005
228.677	2.31804972
228.89	3.32979403
229.103	2.92335326
229.316	3.29363095
229.529	1.96874006
229.743	1.88747251
229.956	2.20713927
230.169	1.59072316
230.382	1.9742548
230.595	1.1706085
230.808	1.40044511
231.021	0.7998637
231.234	1.86743383
231.447	2.79208794
231.66	3.73358999
231.872	4.17607223
232.085	5.19530092
232.298	5.15802454
232.511	4.99986541
232.724	4.71858935
232.937	4.33794018
233.15	3.467009
233.363	2.14175544
233.576	2.60034345
233.789	1.68702243
234.002	1.61958988
234.214	1.89785876
234.427	2.12077769
234.64	2.24797024
234.853	1.53774464
235.066	2.1051097
235.279	2.04461949
235.491	3.07984394
235.704	2.19912294
235.917	1.51034619
236.13	0.86053361
236.342	0.47914146
236.555	-0.16915371
236.768	-0.5842383
236.981	-0.58927493
237.193	-0.62960512
237.406	-0.20271631
237.619	1.56109995
237.832	2.06967905
238.044	2.73786408
238.257	2.93853939
238.47	3.20423409
238.682	3.79585721
238.895	2.84498112
239.108	4.36956725
239.32	4.44835011
239.533	4.49682522
239.746	3.02000835
239.958	3.04808033
240.171	2.51222457
240.383	2.25477331
240.596	2.48399167
240.808	3.107752
241.021	2.91072956
241.234	3.50148954
241.446	3.96400633
241.659	3.65333694
241.871	3.22756973
242.084	1.48986786
242.296	0.90268528
242.509	0.33658097
242.721	0.26219124
242.934	0.95043447
243.146	-0.092073
243.359	0.49397034
243.571	-0.34944849
243.784	-0.32478543
243.996	-0.41311589
244.208	1.30319857
244.421	0.65178824
244.633	2.51258201
244.846	2.79716416
245.058	2.69743243
245.27	1.56960161
245.483	2.18577171
245.695	1.9226084
245.907	2.30335424
246.12	3.40482755
246.332	3.73810946
246.544	4.73495932
246.757	4.947398
246.969	5.23812629
247.181	5.41032523
247.394	4.20895278
247.606	4.11825479
247.818	4.2284556
248.03	3.9355166
248.243	4.41856671
248.455	4.35672009
248.667	4.38178211
248.879	4.72258997
249.092	3.6592426
249.304	3.67044075
249.516	3.52355531
249.728	4.32172323
249.94	4.28086607
250.153	3.91819205
250.365	3.10123148
250.577	3.6956648
250.789	4.79690347
251.001	4.22957105
251.213	4.95229721
251.425	5.30978167
251.637	5.3221185
251.85	5.73549367
252.062	5.85108536
252.274	5.81773339
252.486	6.22626601
252.698	5.65884455
252.91	5.2213526
253.122	6.09691053
253.334	6.02864552
253.546	6.4878041
253.758	6.37600544
253.97	6.48432944
254.182	7.01010617
254.394	6.12773971
254.606	6.470354
254.818	6.29742394
255.03	5.04517537
255.242	3.01311915
255.454	3.59116903
255.666	3.21182148
255.877	2.15574396
256.089	1.37465182
256.301	1.20466915
256.513	0.87370069
256.725	1.60450102
256.937	0.93811235
257.149	0.77424998
257.361	2.3149121
257.572	1.64867388
257.784	1.93689198
257.996	1.43036567
258.208	1.41034328
258.42	2.09127204
258.631	1.64013746
258.843	2.71625685
259.055	2.44015392
259.267	2.44150827
259.479	2.48038043
259.69	3.11047322
259.902	2.93523101
260.114	2.81057256
260.325	2.91062847
260.537	4.08425331
260.749	3.99206097
260.961	3.38186681
261.172	1.68744231
261.384	2.29699771
261.596	2.91300281
261.807	2.23131009
262.019	2.2143165
262.23	1.67545138
262.442	2.03781139
262.654	2.17384602
262.865	1.1565337
263.077	0.80166973
263.288	0.67314513
263.5	0.55791894
263.712	1.13251797
263.923	1.10916856
264.135	1.54776587
264.346	1.23200049
264.558	0.78563976
264.769	-0.15920236
264.981	-0.79713574
265.192	-0.20239415
265.404	0.86399086
265.615	1.89095407
265.827	0.81662752
266.038	0.6676042
266.25	0.75758166
266.461	0.16415943
266.673	0.8129487
266.884	0.69777734
267.095	0.76634274
267.307	0.98280006
267.518	1.87064714
267.73	1.70578001
267.941	2.14104293
268.152	1.07961862
268.364	1.53873074
268.575	1.58820425
268.786	1.94932991
268.998	2.83641879
269.209	3.47718022
269.42	4.08829423
269.632	4.26307089
269.843	5.26148738
270.054	5.73523803
270.265	5.99715621
270.477	5.69927243
270.688	5.81856079
270.899	6.53151767
271.11	6.70105201
271.322	6.41277306
271.533	6.54071445
271.744	7.01370702
271.955	6.30411237
272.166	6.06980846
272.378	5.24699655
272.589	6.0462341
272.8	6.27629996
273.011	5.68520408
273.222	5.81381174
273.433	5.51164259
273.644	6.01691527
273.856	6.01118735
274.067	4.88140868
274.278	4.22795247
274.489	3.73155669
274.7	3.48913066
274.911	4.21093671
275.122	4.41672149
275.333	3.86184547
275.544	3.36513711
275.755	3.92711938
275.966	4.66461382
276.177	3.64690126
276.388	3.21859526
276.599	3.01473658
276.81	3.63989856
277.021	3.71029526
277.232	3.05331941
277.443	3.96146474
277.654	4.18727454
277.865	4.21191566
278.076	3.87770146
278.287	3.36289776
278.497	4.15646535
278.708	4.03281043
278.919	3.88578362
279.13	4.37885486
279.341	3.44862427
279.552	3.53874294
279.763	3.68027879
279.973	3.55269157
280.184	3.31222864
280.395	2.56742459
280.606	2.42081632
280.817	2.58091753
281.027	2.99238303
281.238	2.43632857
281.449	1.93202496
281.66	2.10054513
281.87	1.6893012
282.081	0.88111677
282.292	1.75689396
282.503	2.13035062
282.713	2.84306761
282.924	3.80524008
283.135	4.39828825
283.345	5.18774253
283.556	5.27746161
283.767	5.75339376
283.977	5.7457004
284.188	6.2400921
284.399	6.48126586
284.609	6.3527296
284.82	6.47465178
285.03	6.95701124
285.241	7.84125128
285.451	7.6242471
285.662	8.11319011
285.873	8.49805754
286.083	8.86890771
286.294	8.53454143
286.504	9.30322811
286.715	8.6951538
286.925	8.66138465
287.136	8.54642969
287.346	7.62947458
287.557	6.70977626
287.767	6.27704692
287.978	5.98597787
288.188	6.40228841
288.399	6.19585172
288.609	6.56495259
288.819	6.54770185
289.03	6.62468514
289.24	6.49777229
289.451	6.51377517
289.661	6.31565236
289.871	6.49446904
290.082	6.34430548
290.292	6.39211251
290.502	5.93202444
290.713	5.79740515
290.923	5.36375606
291.133	5.56327607
291.344	5.12948896
291.554	4.98763194
291.764	5.37883896
291.974	5.6494598
292.185	5.66335851
292.395	5.50385957
292.605	5.41020041
292.815	5.25534634
293.026	4.59432606
293.236	4.56323194
293.446	4.58775893
293.656	4.39342134
293.866	4.43120542
294.077	4.33916074
294.287	4.28453282
294.497	4.24161257
294.707	4.20737716
294.917	4.21928576
295.127	4.3485779
295.337	4.49085084
295.548	4.48053199
295.758	4.65442268
295.968	4.58361963
296.178	4.39153521
296.388	4.44598563
296.598	4.48907823
296.808	4.44440535
297.018	4.33378451
297.228	4.47360609
297.438	4.54713508
297.648	4.59510121
297.858	4.65836797
298.068	4.65699003
298.278	4.59480781
298.488	4.5784131
298.698	4.58386343
298.908	4.64663194
299.118	4.5841982
299.328	4.59580515
299.538	4.59434541
299.748	4.48856895
299.957	4.4100963
300.167	4.35277801
300.377	4.32602295
300.587	4.31516715
300.797	4.25846667
301.007	4.25318951
301.217	4.30963567
301.426	4.33998162
301.636	4.33384873
301.846	4.29851871
302.056	4.27209346
302.266	4.25685872
302.475	4.29409002
302.685	4.29564423
302.895	4.32096399
303.105	4.30610332
303.314	4.28616911
303.524	4.29780243
303.734	4.30854807
303.944	4.30717891
304.153	4.321775
304.363	4.34829219
304.573	4.33782902
304.782	4.35505819
304.992	4.36658263
305.202	4.39240518
305.411	4.38108451
305.621	4.39190577
305.831	4.40269973
306.04	4.40250595
306.25	4.4340701
306.459	4.43616328
306.669	4.44877318
306.878	4.44900847
307.088	4.46570629
307.298	4.46254494
307.507	4.46544061
307.717	4.46678816
307.926	4.46886378
308.136	4.45949923
308.345	4.46355853
308.555	4.48595212
308.764	4.4848985
308.974	4.49651037
309.183	4.49859664
309.392	4.50076197
309.602	4.507062
309.811	4.51768774
310.021	4.49711779
310.23	4.49913878
310.44	4.50734899
310.649	4.5072059
310.858	4.52307956
311.068	4.51511666
311.277	4.5207127
311.486	4.52200047
311.696	4.53040006
311.905	4.54570046
312.114	4.55335301
312.324	4.55916852
312.533	4.5669277
312.742	4.57494978
312.952	4.57994933
313.161	4.58182877
313.37	4.59150509
313.579	4.60349232
313.789	4.6048271
313.998	4.60474127
314.207	4.61606522
314.416	4.6317418
314.625	4.63167919
314.835	4.62634741
315.044	4.63057357
315.253	4.63021482
315.462	4.62528055
315.671	4.63671873
315.88	4.63883577
316.09	4.64260226
316.299	4.64417103
316.508	4.65058771
316.717	4.65615526
316.926	4.66420547
317.135	4.6656191
317.344	4.67021937
317.553	4.67939928
317.762	4.69028345
317.971	4.69701754
318.18	4.72037869
318.389	4.73244962
318.598	4.72913172
318.807	4.74035366
319.016	4.7452995
319.225	4.755054
319.434	4.75858706
319.643	4.76303648
319.852	4.78106429
320.061	4.78231592
320.27	4.78598514
320.479	4.78473237
320.688	4.78825669
320.897	4.79542344
321.105	4.79886344
321.314	4.80743021
321.523	4.81907395
321.732	4.81806736
321.941	4.82644231
322.15	4.82771142
322.359	4.8287315
322.567	4.82514417
322.776	4.82628646
322.985	4.83507049
323.194	4.83630672
323.403	4.84286395
323.611	4.84933374
323.82	4.85692445
324.029	4.86440578
324.237	4.86671238
324.446	4.86863472
324.655	4.88104282
324.864	4.89158857
325.072	4.89573846
325.281	4.89781777
325.49	4.90572299
325.698	4.90768005
325.907	4.91088907
326.116	4.9162353
326.324	4.91687892
326.533	4.92227981
326.741	4.93155872
326.95	4.93636635
327.159	4.94209454
327.367	4.94885738
327.576	4.95686161
327.784	4.96370485
327.993	4.96317883
328.201	4.9693453
328.41	4.97289238
328.618	4.98240302
328.827	4.99328893
329.035	4.99916291
329.244	5.00387819
329.452	5.01325411
329.661	5.02655826
329.869	5.03256366
330.078	5.04383264
330.286	5.04692048
330.495	5.05473608
330.703	5.06468885
330.911	5.07290318
331.12	5.07598178
331.328	5.0838355
331.537	5.09185387
331.745	5.09569708
331.953	5.10365031
332.162	5.11014679
332.37	5.12075072
332.578	5.12906529
332.787	5.13870098
332.995	5.14490613
333.203	5.1497152
333.411	5.15200653
333.62	5.15982354
333.828	5.16505381
334.036	5.1710326
334.244	5.1760171
334.453	5.17926313
334.661	5.19166995
334.869	5.19975322
335.077	5.2072896
335.285	5.21203276
335.494	5.21805462
335.702	5.22843703
335.91	5.23561828
336.118	5.24003947
336.326	5.24942424
336.534	5.25515347
336.742	5.25939113
336.951	5.26574217
337.159	5.2697769
337.367	5.27945898
337.575	5.28693932
337.783	5.29371027
337.991	5.30034429
338.199	5.3131809
338.407	5.31971818
338.615	5.3307143
338.823	5.33549818
339.031	5.33819254
339.239	5.34606506
339.447	5.35526825
339.655	5.36053807
339.863	5.36723576
340.071	5.36778698
340.279	5.37755276
340.487	5.38907175
340.695	5.39406902
340.903	5.40137176
341.11	5.41372394
341.318	5.41402246
341.526	5.4210153
341.734	5.42594093
341.942	5.43105884
342.15	5.44014647
342.358	5.44782541
342.565	5.44764178
342.773	5.451154
342.981	5.45494511
343.189	5.46075371
343.397	5.47116194
343.604	5.47746352
343.812	5.48067876
344.02	5.48917779
344.228	5.49369209
344.435	5.5031272
344.643	5.50204546
344.851	5.50827977
345.058	5.50996641
345.266	5.5150646
345.474	5.51707547
345.681	5.52530402
345.889	5.53204326
346.097	5.53433319
346.304	5.53746114
346.512	5.54328484
346.72	5.54787638
346.927	5.55249081
347.135	5.55706029
347.342	5.56158498
347.55	5.56919039
347.758	5.57107804
347.965	5.57435806
348.173	5.57517462
348.38	5.58234796
348.588	5.5923317
348.795	5.59439919
349.003	5.6002683
349.21	5.60575573
349.418	5.61218252
349.625	5.61342277
349.833	5.62068013
350.04	5.62800262
350.247	5.63366494
350.455	5.63781509
350.662	5.64694269
350.87	5.65339387
351.077	5.65520245
351.284	5.66072229
351.492	5.66909418
351.699	5.67641575
351.906	5.68342115
352.114	5.68434514
352.321	5.68930218
352.528	5.69175441
352.736	5.69325363
352.943	5.69809184
353.15	5.70313621
353.358	5.7114397
353.565	5.71138787
353.772	5.71411822
353.979	5.72805994
354.187	5.73386127
354.394	5.73639195
354.601	5.74200201
354.808	5.7456826
355.015	5.7485763
355.223	5.7514514
355.43	5.75704644
355.637	5.76170287
355.844	5.76434356
356.051	5.76721088
356.258	5.76986613
356.465	5.78198298
356.673	5.78729471
356.88	5.79732272
357.087	5.80237545
357.294	5.80417924
357.501	5.81058585
357.708	5.81460602
357.915	5.82287835
358.122	5.82807753
358.329	5.83153352
358.536	5.83466052
358.743	5.83900371
358.95	5.8436375
359.157	5.85010843
359.364	5.85156034
359.571	5.85737422
359.778	5.86731246
359.985	5.87170914
360.192	5.87968312
360.399	5.88668442
360.606	5.89173452
360.812	5.89471326
361.019	5.89999327
361.226	5.9040859
361.433	5.90716739
361.64	5.91161493
361.847	5.91790707
362.054	5.91976695
362.26	5.92787474
362.467	5.93449791
362.674	5.93778576
362.881	5.94183697
363.088	5.94924198
363.294	5.95486716
363.501	5.96167991
363.708	5.96989928
363.915	5.9737568
364.121	5.97527856
364.328	5.979382
364.535	5.98185148
364.741	5.98657948
364.948	5.99255227
365.155	5.99727958
365.361	6.00116116
365.568	6.00663138
365.775	6.01457459
365.981	6.02202318
366.188	6.02257965
366.395	6.03063761
366.601	6.0316574
366.808	6.03522869
367.014	6.0383988
367.221	6.04380604
367.427	6.04746278
367.634	6.05057799
367.84	6.05588313
368.047	6.06310037
368.254	6.07166063
368.46	6.07644858
368.667	6.08494394
368.873	6.09055495
369.079	6.09631683
369.286	6.1002883
369.492	6.10625881
369.699	6.11581822
369.905	6.11970084
370.112	6.1295851
370.318	6.13343027
370.524	6.14436771
370.731	6.15043818
370.937	6.15776256
371.144	6.16856978
371.35	6.17705544
371.556	6.1861706
371.763	6.19149347
371.969	6.20158873
372.175	6.20645803
372.381	6.21088692
372.588	6.21505482
372.794	6.22030801
373	6.22900106
373.206	6.23599418
373.413	6.24157407
373.619	6.24813555
373.825	6.25559201
374.031	6.25743855
374.238	6.26523781
374.444	6.26768363
374.65	6.27531199
374.856	6.28162298
375.062	6.29297194
375.268	6.30145301
375.475	6.30642625
375.681	6.31315469
375.887	6.31698325
376.093	6.32711789
376.299	6.32784403
376.505	6.33613242
376.711	6.34377806
376.917	6.3552368
377.123	6.36652456
377.329	6.37463648
377.535	6.3828284
377.741	6.39511502
377.947	6.40421909
378.153	6.41229744
378.359	6.422783
378.565	6.4335829
378.771	6.4431772
378.977	6.45225495
379.183	6.45905585
379.389	6.46415008
379.595	6.47467375
379.801	6.48624356
380.007	6.49463718
380.213	6.50468749
380.418	6.5133319
380.624	6.53148457
380.83	6.54078073
381.036	6.55258302
381.242	6.55804546
381.448	6.56771278
381.653	6.57135186
381.859	6.58013546
382.065	6.58637017
382.271	6.59604389
382.476	6.60658725
382.682	6.61572552
382.888	6.62667215
383.094	6.63456685
383.299	6.64366698
383.505	6.65207624
383.711	6.6621467
383.916	6.66499716
384.122	6.67293669
384.328	6.6799907
384.533	6.69052376
384.739	6.69902833
384.945	6.70231448
385.15	6.71204661
385.356	6.71843937
385.562	6.72140422
385.767	6.72559345
385.973	6.73790131
386.178	6.74728596
386.384	6.74843046
386.589	6.75778401
386.795	6.76261115
387	6.77195593
387.206	6.77744716
387.411	6.78619874
387.617	6.79607573
387.822	6.8044458
388.028	6.81236276
388.233	6.82334618
388.439	6.82898129
388.644	6.83891518
388.85	6.84513198
389.055	6.85415996
389.26	6.86377647
389.466	6.87035635
389.671	6.87714533
389.877	6.89077858
390.082	6.90159119
390.287	6.9100872
390.493	6.91850899
390.698	6.93288115
390.903	6.94170292
391.109	6.95259854
391.314	6.95834182
391.519	6.96669554
391.724	6.97692059
391.93	6.98164371
392.135	6.98879221
392.34	7.00089858
392.545	7.0073502
392.751	7.01864031
392.956	7.02812596
393.161	7.03691852
393.366	7.04410395
393.571	7.05109609
393.776	7.0626831
393.982	7.07285955
394.187	7.07937495
394.392	7.08627366
394.597	7.09149806
394.802	7.09944258
395.007	7.10673612
395.212	7.11358742
395.417	7.11867767
395.622	7.12872092
395.827	7.13822168
396.032	7.14301187
396.237	7.14820895
396.442	7.15496534
396.647	7.15551166
396.852	7.16424981
397.057	7.16689376
397.262	7.17362986
397.467	7.17858982
397.672	7.1841773
397.877	7.19167367
398.082	7.19442543
398.287	7.19809025
398.492	7.20216602
398.697	7.20639159
398.902	7.21509034
399.107	7.21782109
399.311	7.22286502
399.516	7.22547828
399.721	7.2298518
399.926	7.23349755
400.131	7.23705797
400.336	7.24238576
400.54	7.25283145
400.745	7.25924154
400.95	7.26573773
401.155	7.27198448
401.359	7.2780538
401.564	7.28502251
401.769	7.29101648
401.974	7.29822856
402.178	7.30440626
402.383	7.31043838
402.588	7.31827054
402.792	7.32439973
402.997	7.33172119
403.202	7.33731606
403.406	7.34668366
403.611	7.35535512
403.815	7.3615474
404.02	7.37061367
404.225	7.37816343
404.429	7.38527341
404.634	7.39136306
404.838	7.39467621
405.043	7.40150478
405.247	7.40833778
405.452	7.41364252
405.656	7.42200006
405.861	7.42554354
406.065	7.43397452
406.27	7.44119213
406.474	7.4470649
406.679	7.4565802
406.883	7.45949514
407.088	7.46878768
407.292	7.47624638
407.497	7.48110466
407.701	7.48352756
407.905	7.49074579
408.11	7.49837728
408.314	7.50372033
408.518	7.51179704
408.723	7.51806494
408.927	7.52773841
409.131	7.53602168
409.336	7.54326503
409.54	7.55099616
409.744	7.55620999
409.949	7.56358484
410.153	7.57449817
410.357	7.58044273
410.561	7.58580397
410.766	7.59034891
410.97	7.59538134
411.174	7.60260765
411.378	7.60931333
411.582	7.61536611
411.787	7.62468989
411.991	7.63368818
412.195	7.63906626
412.399	7.64899665
412.603	7.65858208
412.807	7.66333888
413.011	7.669855
413.215	7.67448829
413.419	7.68051599
413.624	7.6870763
413.828	7.69515752
414.032	7.704181
414.236	7.71200097
414.44	7.7155715
414.644	7.72087171
414.848	7.72790482
415.052	7.73813448
415.256	7.744596
415.46	7.75372231
415.664	7.76227525
415.868	7.76860484
416.072	7.77652503
416.275	7.78475906
416.479	7.79263196
416.683	7.79843243
416.887	7.80445526
417.091	7.81477594
417.295	7.825004
417.499	7.83256322
417.703	7.8413247
417.906	7.85181568
418.11	7.85588868
418.314	7.86654443
418.518	7.87297694
418.722	7.88159601
418.925	7.89087016
419.129	7.89874016
419.333	7.90699347
419.537	7.91706991
419.74	7.92453849
419.944	7.93136534
420.148	7.94174015
420.352	7.9477021
420.555	7.95649014
420.759	7.96203289
420.963	7.97198509
421.166	7.97883188
421.37	7.98699448
421.573	7.99494423
421.777	8.00268147
421.981	8.01074932
422.184	8.01833308
422.388	8.03001234
422.591	8.03638367
422.795	8.04316629
422.999	8.0497462
423.202	8.05702321
423.406	8.06828929
423.609	8.07532124
423.813	8.08151305
424.016	8.0911744
424.22	8.10163246
424.423	8.11020964
424.627	8.11802272
424.83	8.12639951
425.033	8.13661878
425.237	8.14432648
425.44	8.15413529
425.644	8.16288883
425.847	8.16858207
426.05	8.17829989
426.254	8.18865788
426.457	8.19804091
426.66	8.20781843
426.864	8.21651146
427.067	8.22542424
427.27	8.23771927
427.474	8.24916877
427.677	8.25688519
427.88	8.26821185
428.084	8.27898075
428.287	8.28931639
428.49	8.29507023
428.693	8.30458378
428.896	8.31338081
429.1	8.32466624
429.303	8.33236632
429.506	8.34128528
429.709	8.35211251
429.912	8.36197672
430.116	8.37347262
430.319	8.3834426
430.522	8.39499579
430.725	8.40038723
430.928	8.41132019
431.131	8.4210368
431.334	8.43147335
431.537	8.44091268
431.74	8.45037315
431.943	8.45963062
432.146	8.46878233
432.349	8.47681547
432.552	8.48366673
432.755	8.49643954
432.958	8.50630656
433.161	8.51690493
433.364	8.52396785
433.567	8.53674935
433.77	8.54566256
433.973	8.5539908
434.176	8.56108412
434.379	8.56920386
434.582	8.5785853
434.785	8.58719932
434.988	8.59885741
435.19	8.60400045
435.393	8.61705021
435.596	8.62653619
435.799	8.63527502
436.002	8.64348604
436.205	8.65403508
436.407	8.66133714
436.61	8.67159483
436.813	8.6842765
437.016	8.69046235
437.218	8.7009928
437.421	8.70873847
437.624	8.71857548
437.827	8.72667423
438.029	8.73643672
438.232	8.74635757
438.435	8.75561803
438.637	8.76751197
438.84	8.7748755
439.043	8.78176792
439.245	8.79239136
439.448	8.80445231
439.65	8.8086838
439.853	8.81877168
440.056	8.82899835
440.258	8.83904512
440.461	8.84720156
440.663	8.85507868
440.866	8.86476637
441.068	8.87343216
441.271	8.88519053
441.473	8.89257394
441.676	8.90466258
441.878	8.91394415
442.081	8.92462165
442.283	8.93439493
442.486	8.94618433
442.688	8.95674768
442.89	8.96443265
443.093	8.97594324
443.295	8.98453381
443.498	8.99333539
443.7	9.00268757
443.902	9.01318261
444.105	9.02151474
444.307	9.0291779
444.509	9.03751233
444.712	9.04837761
444.914	9.06304295
445.116	9.07332511
445.319	9.0847905
445.521	9.09546134
445.723	9.1085944
445.925	9.11803172
446.128	9.12974085
446.33	9.14240618
446.532	9.15139976
446.734	9.15887086
446.936	9.17032147
447.139	9.18226186
447.341	9.1937941
447.543	9.20553187
447.745	9.21650163
447.947	9.22656702
448.149	9.23773998
448.351	9.24990774
448.553	9.25974918
448.755	9.27138161
448.958	9.28002964
449.16	9.2868796
449.362	9.2973928
449.564	9.30763944
449.766	9.31586591
449.968	9.32462051
450.17	9.33710056
450.372	9.34765575
450.574	9.35613106
450.776	9.36694406
450.978	9.37779269
451.179	9.38804896
451.381	9.39908009
451.583	9.40799001
451.785	9.42154428
451.987	9.43201823
452.189	9.44581493
452.391	9.45766657
452.593	9.46970588
452.795	9.48160148
452.996	9.49367812
453.198	9.50795008
453.4	9.51977785
453.602	9.53150039
453.804	9.54206197
454.005	9.55515207
454.207	9.56907721
454.409	9.57964205
454.611	9.59101147
454.812	9.6055446
455.014	9.61733111
455.216	9.63107115
455.417	9.64492839
455.619	9.65504594
455.821	9.6680248
456.022	9.67760285
456.224	9.69026229
456.426	9.6989101
456.627	9.71114394
456.829	9.72114114
457.031	9.73280755
457.232	9.7447856
457.434	9.75522053
457.635	9.76590285
457.837	9.77882921
458.038	9.79139275
458.24	9.80152569
458.441	9.80971916
458.643	9.82058217
458.844	9.83204249
459.046	9.83935544
459.247	9.85248781
459.449	9.86231279
459.65	9.87226543
459.852	9.88363116
460.053	9.89222288
460.254	9.90608101
460.456	9.91898082
460.657	9.93243484
460.859	9.94247063
461.06	9.95563246
461.261	9.9679051
461.463	9.98011652
461.664	9.99067378
461.865	10.00436494
462.066	10.01508246
462.268	10.02839634
462.469	10.04157198
462.67	10.05507048
462.872	10.06607742
463.073	10.07876037
463.274	10.09338576
463.475	10.10470497
463.676	10.11769963
463.878	10.12570296
464.079	10.13751267
464.28	10.1504566
464.481	10.15700038
464.682	10.16683533
464.883	10.17666576
465.085	10.18834084
465.286	10.20265991
465.487	10.2152918
465.688	10.22604145
465.889	10.23611905
466.09	10.24714534
466.291	10.25788322
466.492	10.26793415
466.693	10.2812504
466.894	10.29399211
467.095	10.30632592
467.296	10.31452752
467.497	10.3257425
467.698	10.33841684
467.899	10.35036188
468.1	10.36463724
468.301	10.37660629
468.502	10.38873633
468.703	10.40401809
468.903	10.41694717
469.104	10.43113717
469.305	10.44353807
469.506	10.45419857
469.707	10.46640126
469.908	10.4818756
470.109	10.49612078
470.309	10.50975553
470.51	10.52134873
470.711	10.53640188
470.912	10.54833749
471.112	10.56015925
471.313	10.57592908
471.514	10.58926524
471.715	10.59959262
471.915	10.61226674
472.116	10.62308486
472.317	10.63906518
472.517	10.65212873
472.718	10.66643826
472.919	10.68142561
473.119	10.69450848
473.32	10.70628252
473.521	10.719928
473.721	10.73202775
473.922	10.74555154
474.122	10.75672581
474.323	10.76953735
474.523	10.78182193
474.724	10.79715493
474.925	10.80796762
475.125	10.82080405
475.326	10.83515883
475.526	10.84740927
475.727	10.86221087
475.927	10.87699846
476.127	10.88983917
476.328	10.90313001
476.528	10.91379271
476.729	10.92602186
476.929	10.93967095
477.13	10.95186503
477.33	10.96660088
477.53	10.979837
477.731	10.99369747
477.931	11.00839495
478.131	11.02152462
478.332	11.03586428
478.532	11.05223462
478.732	11.06591832
478.933	11.08127977
479.133	11.09869771
479.333	11.11261968
479.533	11.12698027
479.734	11.13888556
479.934	11.15409638
480.134	11.16986101
480.334	11.18595303
480.534	11.20196349
480.735	11.21727035
480.935	11.23633827
481.135	11.25228649
481.335	11.26772037
481.535	11.28226006
481.735	11.29891939
481.935	11.3139703
482.136	11.32973988
482.336	11.34758035
482.536	11.36292712
482.736	11.37663038
482.936	11.39522285
483.136	11.41122381
483.336	11.42574828
483.536	11.4443943
483.736	11.45859276
483.936	11.47560243
484.136	11.49103601
484.336	11.50755239
484.536	11.52469236
484.736	11.54297964
484.936	11.56015015
485.135	11.57451173
485.335	11.58968198
485.535	11.60702281
485.735	11.624873
485.935	11.64271901
486.135	11.66074943
486.335	11.6793015
486.534	11.69640259
486.734	11.71430066
486.934	11.73335948
487.134	11.75130912
487.334	11.76861293
487.533	11.78584866
487.733	11.80170732
487.933	11.8214076
488.133	11.84216954
488.332	11.8595673
488.532	11.87945025
488.732	11.89742557
488.931	11.91502658
489.131	11.9320324
489.331	11.95217497
489.53	11.97121112
489.73	11.99051055
489.93	12.00887391
490.129	12.02670254
490.329	12.04565948
490.528	12.06229437
490.728	12.07909722
490.928	12.09833391
491.127	12.11581794
491.327	12.13261451
491.526	12.151213
491.726	12.16888982
491.925	12.18924964
492.125	12.21008459
492.324	12.22821232
492.524	12.24800721
492.723	12.26557393
492.922	12.28196986
493.122	12.30035901
493.321	12.32128153
493.521	12.34023673
493.72	12.36002686
493.919	12.37855001
494.119	12.39629664
494.318	12.4168694
494.517	12.4365823
494.717	12.45691918
494.916	12.47480403
495.115	12.49464323
495.315	12.51781699
495.514	12.5385448
495.713	12.55790327
495.912	12.57995667
496.112	12.60025616
496.311	12.61829143
496.51	12.63984858
496.709	12.66235933
496.908	12.68251988
497.108	12.70607968
497.307	12.72796004
497.506	12.74853586
497.705	12.7687989
497.904	12.78979671
498.103	12.81219639
498.302	12.83536174
498.501	12.85578621
498.701	12.87503369
498.9	12.89639833
499.099	12.92327716
499.298	12.94444407
499.497	12.96302571
499.696	12.98453643
499.895	13.00511746
500.094	13.02672675
500.293	13.04748493
500.492	13.07152562
500.691	13.09234922
500.89	13.11079124
501.088	13.1329854
501.287	13.15432481
501.486	13.17856395
501.685	13.20236431
501.884	13.22507106
502.083	13.2476354
502.282	13.26907497
502.481	13.28943637
502.679	13.31212171
502.878	13.33451433
503.077	13.35548435
503.276	13.37481206
503.475	13.39884051
503.673	13.42053638
503.872	13.44395624
504.071	13.46745285
504.27	13.48967762
504.468	13.51153733
504.667	13.53211492
504.866	13.55220852
505.064	13.57610654
505.263	13.5986297
505.462	13.61984501
505.66	13.63892267
505.859	13.65834101
506.058	13.67875039
506.256	13.70101312
506.455	13.72283044
506.653	13.7455223
506.852	13.76847285
507.05	13.7891684
507.249	13.81185572
507.448	13.83285924
507.646	13.85142016
507.845	13.87269103
508.043	13.89183627
508.242	13.91177402
508.44	13.93165487
508.638	13.95417532
508.837	13.97561678
509.035	13.99667684
509.234	14.01880353
509.432	14.0387371
509.631	14.06188043
509.829	14.08421184
510.027	14.10460511
510.226	14.12646135
510.424	14.14848526
510.622	14.16998493
510.821	14.19295124
511.019	14.21452719
511.217	14.23930725
511.415	14.26254107
511.614	14.28668965
511.812	14.30948457
512.01	14.33361446
512.208	14.3579803
512.407	14.38274832
512.605	14.40581631
512.803	14.42841364
513.001	14.45315256
513.199	14.47915058
513.398	14.50074596
513.596	14.5253716
513.794	14.54953705
513.992	14.57146257
514.19	14.59745681
514.388	14.62224353
514.586	14.64698634
514.784	14.67155656
514.982	14.69491962
515.18	14.71883557
515.378	14.74319374
515.576	14.76750165
515.774	14.79133404
515.972	14.81609372
516.17	14.84035808
516.368	14.86405759
516.566	14.88917459
516.764	14.91419189
516.962	14.93914814
517.16	14.96173248
517.358	14.98359599
517.556	15.01114308
517.754	15.03634517
517.952	15.05897185
518.149	15.08391439
518.347	15.1094473
518.545	15.13535689
518.743	15.16004519
518.941	15.18210203
519.138	15.20841819
519.336	15.2337221
519.534	15.25966755
519.732	15.28281141
519.929	15.30747963
520.127	15.33393878
520.325	15.36087877
520.523	15.38780923
520.72	15.41275431
520.918	15.44059799
521.116	15.46399958
521.313	15.48841587
521.511	15.5147361
521.709	15.53815578
521.906	15.56467293
522.104	15.59010386
522.301	15.61816228
522.499	15.64266819
522.696	15.66874446
522.894	15.69296865
523.092	15.72018418
523.289	15.7448489
523.487	15.76898105
523.684	15.79281862
523.882	15.81987961
524.079	15.845489
524.276	15.86932341
524.474	15.89302338
524.671	15.91655739
524.869	15.94388747
525.066	15.96546228
525.264	15.99313542
525.461	16.01802312
525.658	16.04354479
525.856	16.06676466
526.053	16.08883214
526.25	16.11428047
526.448	16.13711743
526.645	16.16227501
526.842	16.1862447
527.039	16.21146387
527.237	16.23550011
527.434	16.25840532
527.631	16.28179075
527.828	16.30736349
528.026	16.32823158
528.223	16.3532701
528.42	16.37873131
528.617	16.40314345
528.814	16.42830945
529.012	16.44796829
529.209	16.47328631
529.406	16.49715587
529.603	16.52196745
529.8	16.54577255
529.997	16.57204185
530.194	16.59801498
530.391	16.62192469
530.588	16.64522148
530.785	16.6682295
530.982	16.6912193
531.179	16.712867
531.376	16.7365439
531.573	16.75889195
531.77	16.78091158
531.967	16.80332465
532.164	16.82803308
532.361	16.84950334
532.558	16.87152079
532.755	16.89113095
532.952	16.91128787
533.149	16.93607954
533.346	16.95935395
533.543	16.97967175
533.739	16.99978231
533.936	17.01938372
534.133	17.03835617
534.33	17.0567623
534.527	17.07517582
534.723	17.09615645
534.92	17.11632911
535.117	17.13628775
535.314	17.15537736
535.51	17.17317843
535.707	17.19401341
535.904	17.21319563
536.1	17.23059571
536.297	17.25034463
536.494	17.27047697
536.69	17.2877596
536.887	17.3090615
537.084	17.32593093
537.28	17.34388238
537.477	17.35788071
537.674	17.37472367
537.87	17.39439999
538.067	17.41470768
538.263	17.43414853
538.46	17.45447406
538.656	17.46986692
538.853	17.48904747
539.049	17.50597067
539.246	17.52243902
539.442	17.54227285
539.639	17.55997975
539.835	17.57622581
540.032	17.59595785
540.228	17.61139024
540.424	17.62630801
540.621	17.6424636
540.817	17.65886517
541.014	17.67333449
541.21	17.69047522
541.406	17.7052782
541.603	17.72057262
541.799	17.73631364
541.995	17.74997615
542.191	17.76214476
542.388	17.7764623
542.584	17.78955249
542.78	17.80865879
542.976	17.82264437
543.173	17.83632806
543.369	17.84965805
543.565	17.86275165
543.761	17.87867317
543.957	17.89186894
544.154	17.90345043
544.35	17.91898446
544.546	17.93231977
544.742	17.94399816
544.938	17.95582478
545.134	17.96725708
545.33	17.98042557
545.526	17.99488374
545.722	18.0112618
545.919	18.02497553
546.115	18.03733485
546.311	18.05152371
546.507	18.06194252
546.703	18.07352867
546.899	18.083753
547.095	18.09316524
547.29	18.10543647
547.486	18.11810181
547.682	18.13023812
547.878	18.13942216
548.074	18.15171485
548.27	18.16475795
548.466	18.17572729
548.662	18.18761755
548.858	18.19951713
549.053	18.21266432
549.249	18.2264123
549.445	18.24129062
549.641	18.25230911
549.837	18.26413627
550.032	18.27508486
550.228	18.28727194
550.424	18.29911094
550.62	18.31440676
550.815	18.32626447
551.011	18.34038343
551.207	18.35459588
551.402	18.36677771
551.598	18.38018424
551.794	18.39084649
551.989	18.40377466
552.185	18.41602473
552.381	18.4286144
552.576	18.44365804
552.772	18.45587826
552.967	18.46928754
553.163	18.48092219
553.359	18.49676639
553.554	18.50833419
553.75	18.52017792
553.945	18.53175773
554.141	18.54810829
554.336	18.56340667
554.532	18.5783642
554.727	18.5914974
554.922	18.60652243
555.118	18.61875247
555.313	18.62884187
555.509	18.64297873
555.704	18.65762296
555.899	18.67274464
556.095	18.68720045
556.29	18.70245168
556.486	18.71938898
556.681	18.73270044
556.876	18.75096964
557.071	18.76630964
557.267	18.78237666
557.462	18.79497654
557.657	18.81057916
557.853	18.82637091
558.048	18.84297512
558.243	18.85704909
558.438	18.87361715
558.633	18.89041953
558.829	18.90547097
559.024	18.92202832
559.219	18.94129025
559.414	18.961237
559.609	18.97974747
559.804	18.99642251
559.999	19.01684593
560.194	19.04000704
560.39	19.05904664
560.585	19.07794684
560.78	19.09606304
560.975	19.11321082
561.17	19.13443281
561.365	19.15817056
561.56	19.18052825
561.755	19.19938908
561.95	19.21921253
562.145	19.24162886
562.34	19.26100122
562.535	19.28318223
562.729	19.30491955
562.924	19.32818716
563.119	19.35133777
563.314	19.37585848
563.509	19.39981066
563.704	19.42346169
563.899	19.44618218
564.093	19.46839582
564.288	19.48787127
564.483	19.51503111
564.678	19.53836137
564.873	19.5672217
565.067	19.59442769
565.262	19.61469236
565.457	19.63865596
565.652	19.66319615
565.846	19.68970885
566.041	19.71603991
566.236	19.74353951
566.43	19.77144698
566.625	19.79789939
566.82	19.82328616
567.014	19.85056841
567.209	19.87709417
567.404	19.90465696
567.598	19.9332564
567.793	19.96331723
567.987	19.99300417
568.182	20.02031306
568.376	20.05231409
568.571	20.07866058
568.765	20.10642738
568.96	20.13321903
569.154	20.16214262
569.349	20.19800609
569.543	20.22405528
569.738	20.25436112
569.932	20.28650374
570.127	20.31918047
570.321	20.34740341
570.515	20.37958089
570.71	20.41244321
570.904	20.44307859
571.098	20.47579056
571.293	20.50834271
571.487	20.53410884
571.681	20.56343557
571.876	20.59345344
572.07	20.62218375
572.264	20.65540477
572.458	20.68416812
572.653	20.71586547
572.847	20.74893144
573.041	20.78057852
573.235	20.81096421
573.43	20.83902039
573.624	20.87427753
573.818	20.90828082
574.012	20.93768117
574.206	20.97040467
574.4	21.00459592
574.594	21.03715431
574.788	21.06572589
574.983	21.09641318
575.177	21.12633722
575.371	21.15811879
575.565	21.19230322
575.759	21.227661
575.953	21.25972207
576.147	21.29385143
576.341	21.32680515
576.535	21.35789707
576.729	21.38869675
576.923	21.41852486
577.117	21.45157319
577.31	21.48069055
577.504	21.51213576
577.698	21.5454387
577.892	21.57426033
578.086	21.60899855
578.28	21.63736643
578.474	21.66802993
578.668	21.69540596
578.861	21.72600251
579.055	21.75764827
579.249	21.78777913
579.443	21.81589208
579.636	21.84720279
579.83	21.87517751
580.024	21.90501834
580.218	21.93401823
580.411	21.96165031
580.605	21.99322515
580.799	22.02292885
580.992	22.05795173
581.186	22.08501066
581.38	22.11924697
581.573	22.148874
581.767	22.1769125
581.961	22.20640819
582.154	22.23549452
582.348	22.26348375
582.541	22.29062683
582.735	22.32113086
582.928	22.35145225
583.122	22.38144345
583.315	22.4109591
583.509	22.44303533
583.702	22.47055776
583.896	22.5001324
584.089	22.52630007
584.283	22.55505262
584.476	22.5821924
584.67	22.60891559
584.863	22.63546385
585.056	22.65765364
585.25	22.68795105
585.443	22.71053447
585.636	22.73825098
585.83	22.76443062
586.023	22.78974
586.216	22.81378975
586.41	22.84178895
586.603	22.86972858
586.796	22.89356415
586.989	22.91875975
587.183	22.94561071
587.376	22.97034322
587.569	22.99213836
587.762	23.01781129
587.955	23.04099933
588.149	23.06794127
588.342	23.09246367
588.535	23.12023599
588.728	23.146453
588.921	23.17275292
589.114	23.19748541
589.307	23.22014543
589.5	23.24300917
589.693	23.26435352
589.886	23.2904974
590.08	23.31482399
590.273	23.34105394
590.466	23.36423634
590.659	23.38238457
590.852	23.41011799
591.044	23.43500657
591.237	23.45786499
591.43	23.4807225
591.623	23.5012078
591.816	23.52235735
592.009	23.54363985
592.202	23.56359674
592.395	23.58433475
592.588	23.60021112
592.781	23.62195362
592.973	23.64255714
593.166	23.6612339
593.359	23.68156655
593.552	23.70439802
593.745	23.72682178
593.937	23.74235292
594.13	23.75651205
594.323	23.77297442
594.515	23.79088779
594.708	23.81040457
594.901	23.82430258
595.094	23.84084579
595.286	23.85712188
595.479	23.87381642
595.672	23.89267735
595.864	23.91024022
596.057	23.92846865
596.249	23.94741887
596.442	23.969049
596.635	23.98647523
596.827	24.00253186
597.02	24.01697602
597.212	24.03386187
597.405	24.04794753
597.597	24.06415759
597.79	24.07822331
597.982	24.09072102
598.175	24.11311798
598.367	24.12778662
598.559	24.14492064
598.752	24.16444832
598.944	24.18062017
599.137	24.19194146
599.329	24.20207108
599.521	24.2160877
599.714	24.23156994
599.906	24.2471125
600.098	24.25988085
600.291	24.27162276
600.483	24.28129097
600.675	24.29376451
600.868	24.30358389
601.06	24.31356241
601.252	24.32794108
601.444	24.34040285
601.637	24.35320528
601.829	24.36558433
602.021	24.38245334
602.213	24.39405329
602.405	24.40262636
602.597	24.41425457
602.789	24.42084283
602.982	24.4354441
603.174	24.44822698
603.366	24.46423476
603.558	24.476771
603.75	24.49021518
603.942	24.49938782
604.134	24.50943663
604.326	24.51658969
604.518	24.52506372
604.71	24.5322173
604.902	24.54405596
605.094	24.55708997
605.286	24.56698644
605.478	24.57487635
605.67	24.58330145
605.862	24.59282043
606.054	24.60008242
606.246	24.60764322
606.437	24.61803997
606.629	24.62345267
606.821	24.63424477
607.013	24.63892275
607.205	24.64637802
607.397	24.65270974
607.588	24.65908343
607.78	24.66530841
607.972	24.67129002
608.164	24.67787041
608.355	24.69019985
608.547	24.69964772
608.739	24.71308793
608.93	24.71876583
609.122	24.7237223
609.314	24.72972291
609.505	24.73952166
609.697	24.74755603
609.889	24.75264516
610.08	24.75730461
610.272	24.76395026
610.463	24.77232436
610.655	24.78079742
610.847	24.78522614
611.038	24.79101281
611.23	24.80056531
611.421	24.80911909
611.613	24.81653423
611.804	24.82225307
611.996	24.82753169
612.187	24.83748499
612.379	24.84573488
612.57	24.85105594
612.761	24.85723781
612.953	24.86666126
613.144	24.87876686
613.336	24.88568079
613.527	24.8930082
613.718	24.89816401
613.91	24.9044911
614.101	24.91235004
614.292	24.91969347
614.483	24.92469005
614.675	24.9306228
614.866	24.94032601
615.057	24.94855502
615.248	24.95513501
615.44	24.96024465
615.631	24.96746612
615.822	24.9740688
616.013	24.98239288
616.204	24.98753515
616.396	24.99058658
616.587	24.99486527
616.778	24.99970703
616.969	25.00160046
617.16	25.00660057
617.351	25.01248178
617.542	25.01693836
617.733	25.02254795
617.924	25.03150526
618.115	25.03757637
618.306	25.04280601
618.497	25.04710157
618.688	25.05724592
618.879	25.05608552
619.07	25.06316186
619.261	25.06741661
619.452	25.0724647
619.643	25.07341737
619.834	25.07631305
620.025	25.08445817
620.216	25.09199346
620.407	25.09893307
620.597	25.10496026
620.788	25.11210846
620.979	25.11799516
621.17	25.12696091
621.361	25.13286114
621.551	25.1384843
621.742	25.14539892
621.933	25.1543196
622.124	25.15972881
622.314	25.16760241
622.505	25.17916266
622.696	25.18282854
622.886	25.19778672
623.077	25.20386903
623.268	25.21039668
623.458	25.21978286
623.649	25.23082622
623.84	25.24667369
624.03	25.25447933
624.221	25.26164818
624.411	25.27323115
624.602	25.2876089
624.792	25.29823121
624.983	25.31336478
625.173	25.32034066
625.364	25.33127152
625.554	25.34241
625.745	25.35232289
625.935	25.35912734
626.126	25.36948479
626.316	25.37659576
626.507	25.38606945
626.697	25.3976378
626.887	25.40804562
627.078	25.41853946
627.268	25.43190798
627.458	25.44258904
627.649	25.45572692
627.839	25.4630195
628.029	25.4754476
628.22	25.48783604
628.41	25.49587226
628.6	25.50629433
628.79	25.51618091
628.981	25.52518068
629.171	25.53836123
629.361	25.55380158
629.551	25.56356957
629.741	25.57775403
629.932	25.59283245
630.122	25.61261176
630.312	25.62678214
630.502	25.6414845
630.692	25.65388527
630.882	25.66856636
631.072	25.68365928
631.262	25.69801116
631.452	25.71436131
631.642	25.72721723
631.832	25.74700346
632.022	25.7624549
632.212	25.77910438
632.402	25.79853115
632.592	25.81634669
632.782	25.83693639
632.972	25.85758219
633.162	25.87472609
633.352	25.8923773
633.542	25.91575001
633.732	25.93813682
633.922	25.95783741
634.111	25.97544653
634.301	25.99665514
634.491	26.01802541
634.681	26.04257594
634.871	26.06118697
635.06	26.08367344
635.25	26.10257977
635.44	26.11860035
635.63	26.14287956
635.819	26.15913557
636.009	26.17966505
636.199	26.2035449
636.388	26.2277475
636.578	26.25178978
636.768	26.2714224
636.957	26.2927008
637.147	26.31111767
637.337	26.33079538
637.526	26.35189619
637.716	26.37093784
637.905	26.39311124
638.095	26.41892157
638.284	26.44151288
638.474	26.46276952
638.663	26.48584053
638.853	26.51443593
639.042	26.54149418
639.232	26.57141984
639.421	26.60193844
639.611	26.62615939
639.8	26.6534978
639.99	26.68289928
640.179	26.7077415
640.368	26.73133938
640.558	26.75761225
640.747	26.78567869
640.936	26.80888514
641.126	26.83906356
641.315	26.86983728
641.504	26.90108469
641.694	26.9344468
641.883	26.96490064
642.072	26.99377723
642.261	27.0283956
642.451	27.06152074
642.64	27.09424103
642.829	27.12512116
643.018	27.15191385
643.207	27.18668027
643.397	27.22054275
643.586	27.25151404
643.775	27.28579427
643.964	27.31880126
644.153	27.35158327
644.342	27.38836627
644.531	27.42653388
644.72	27.46330109
644.909	27.50348502
645.098	27.53994295
645.287	27.5736767
645.476	27.60999056
645.665	27.64585083
645.854	27.68279278
646.043	27.72255891
646.232	27.76038812
646.421	27.79875649
646.61	27.83755089
646.799	27.87536663
646.988	27.91863101
647.177	27.9516363
647.365	27.98914324
647.554	28.02875281
647.743	28.06756474
647.932	28.10666641
648.121	28.15021481
648.309	28.18758926
648.498	28.22416813
648.687	28.26740395
648.876	28.30938542
649.064	28.35468712
649.253	28.40147647
649.442	28.44563146
649.63	28.48932909
649.819	28.53715676
650.008	28.57485753
650.196	28.61685295
650.385	28.66035698
650.574	28.7093437
650.762	28.75613903
650.951	28.80016907
651.139	28.85037039
651.328	28.89981081
651.516	28.95202644
651.705	28.99702397
651.893	29.0436374
652.082	29.0914776
652.27	29.13958885
652.459	29.18841219
652.647	29.23289513
652.836	29.28310208
653.024	29.33512467
653.213	29.38217389
653.401	29.42800247
653.589	29.47546149
653.778	29.52187353
653.966	29.57318465
654.154	29.62477745
654.343	29.67588387
654.531	29.7198095
654.719	29.77183301
654.908	29.82373346
655.096	29.87186279
655.284	29.92283072
655.472	29.97436323
655.661	30.03266683
655.849	30.08603182
656.037	30.13841344
656.225	30.19609828
656.413	30.24829292
656.601	30.3044471
656.79	30.35513969
656.978	30.40675724
657.166	30.46353482
657.354	30.5221714
657.542	30.58151216
657.73	30.63559247
657.918	30.69315543
658.106	30.74459193
658.294	30.80063039
658.482	30.85524283
658.67	30.90666439
658.858	30.96167218
659.046	31.01823635
659.234	31.07543005
659.422	31.13320785
659.61	31.18517131
659.798	31.24312135
659.986	31.29373546
660.173	31.34692556
660.361	31.40281697
660.549	31.45922525
660.737	31.51543331
660.925	31.56516281
661.113	31.61600902
661.3	31.66844556
661.488	31.71974656
661.676	31.77699728
661.864	31.83379805
662.051	31.89294284
662.239	31.94539287
662.427	32.00055162
662.614	32.05740126
662.802	32.11049971
662.99	32.17158647
663.177	32.22416075
663.365	32.28046375
663.553	32.33615344
663.74	32.39401299
663.928	32.45826268
664.115	32.50931131
664.303	32.56736396
664.49	32.62863789
664.678	32.68913695
664.866	32.75478084
665.053	32.81482038
665.24	32.87541949
665.428	32.93273799
665.615	32.98736566
665.803	33.04127028
665.99	33.0980028
666.178	33.15303725
666.365	33.21761756
666.552	33.27294665
666.74	33.33506856
666.927	33.39180433
667.114	33.44985205
667.302	33.50760969
667.489	33.57027243
667.676	33.62178272
667.864	33.68439857
668.051	33.74876396
668.238	33.80810449
668.425	33.8630785
668.613	33.92043841
668.8	33.97138426
668.987	34.03169481
669.174	34.08958647
669.361	34.15283583
669.548	34.20911018
669.736	34.27362511
669.923	34.33107929
670.11	34.39586132
670.297	34.45101745
670.484	34.51099444
670.671	34.56386249
670.858	34.62567132
671.045	34.68836889
671.232	34.75563935
671.419	34.81067036
671.606	34.8779788
671.793	34.92915159
671.98	34.98546113
672.167	35.04055225
672.354	35.10166946
672.541	35.1566814
672.728	35.22157119
672.915	35.27815366
673.101	35.34028562
673.288	35.39469005
673.475	35.45502061
673.662	35.50973093
673.849	35.56738835
674.035	35.63040443
674.222	35.6958881
674.409	35.76101356
674.596	35.81991771
674.783	35.8693802
674.969	35.92486626
675.156	35.97367802
675.343	36.03462811
675.529	36.08947568
675.716	36.15402119
675.903	36.21206941
676.089	36.27928841
676.276	36.33463207
676.462	36.39707472
676.649	36.45333867
676.836	36.51115789
677.022	36.57031559
677.209	36.6270927
677.395	36.68432685
677.582	36.74054109
677.768	36.79280237
677.955	36.83921548
678.141	36.89133014
678.328	36.94362393
678.514	37.00615127
678.701	37.06369191
678.887	37.11660541
679.073	37.17039288
679.26	37.22545401
679.446	37.2836921
679.632	37.33160585
679.819	37.3877539
680.005	37.43580091
680.191	37.49841679
680.378	37.55387348
680.564	37.61043558
680.75	37.66358654
680.936	37.7111654
681.123	37.76926413
681.309	37.82566861
681.495	37.88345962
681.681	37.94505688
681.867	38.00954713
682.054	38.06281513
682.24	38.11907446
682.426	38.17120652
682.612	38.22879504
682.798	38.28768786
682.984	38.35089426
683.17	38.4106348
683.356	38.46455704
683.542	38.52703576
683.728	38.57959202
683.914	38.63906859
684.1	38.68950449
684.286	38.74040419
684.472	38.79572981
684.658	38.85327887
684.844	38.91212983
685.03	38.97122213
685.216	39.03106757
685.402	39.09265122
685.588	39.14844689
685.774	39.20174782
685.96	39.25137873
686.145	39.310612
686.331	39.36709073
686.517	39.42360935
686.703	39.48344685
686.889	39.53665828
687.074	39.58839038
687.26	39.6392887
687.446	39.6908895
687.631	39.75324331
687.817	39.80416869
688.003	39.85807334
688.189	39.91779082
688.374	39.97855087
688.56	40.0426559
688.745	40.10050956
688.931	40.14942932
689.117	40.20259048
689.302	40.25622604
689.488	40.30991439
689.673	40.36158183
689.859	40.42463456
690.044	40.47783291
690.23	40.5317424
690.415	40.59151
690.601	40.63692779
690.786	40.69254412
690.972	40.74925332
691.157	40.8064311
691.343	40.85803474
691.528	40.90965374
691.713	40.95976774
691.899	41.01684461
692.084	41.07517114
692.269	41.12549772
692.455	41.16219594
692.64	41.21410306
692.825	41.26117925
693.011	41.30893287
693.196	41.35144167
693.381	41.40445924
693.566	41.45586273
693.752	41.50494943
693.937	41.55133433
694.122	41.60354651
694.307	41.64338367
694.492	41.7015206
694.678	41.74278756
694.863	41.78648404
695.048	41.82941219
695.233	41.87410543
695.418	41.92259527
695.603	41.97646846
695.788	42.01627991
695.973	42.06157167
696.158	42.10484263
696.343	42.15288707
696.528	42.20387966
696.713	42.25708636
696.898	42.30115265
697.083	42.35215994
697.268	42.39931514
697.453	42.44316544
697.638	42.48416184
697.823	42.52606781
698.008	42.57063975
698.192	42.6143852
698.377	42.65473632
698.562	42.69680418
698.747	42.74452528
698.932	42.79016812
699.117	42.83833795
699.301	42.88553776
699.486	42.92383841
699.671	42.97500298
699.856	43.01290595
700.04	43.05723378
700.225	43.10888741
700.41	43.14909938
700.594	43.18612674
700.779	43.22930145
700.964	43.2728707
701.148	43.31214855
701.333	43.35859138
701.517	43.40478252
701.702	43.44826188
701.887	43.4872179
702.071	43.52814813
702.256	43.56649303
702.44	43.61269934
702.625	43.64095168
702.809	43.68462278
702.994	43.72318368
703.178	43.75453611
703.362	43.79419025
703.547	43.82128605
703.731	43.86646167
703.916	43.90643227
704.1	43.93974049
704.284	43.97425326
704.469	44.0129184
704.653	44.05199669
704.837	44.08509873
705.022	44.11591069
705.206	44.15268408
705.39	44.1818087
705.575	44.21745619
705.759	44.2504472
705.943	44.28360343
706.127	44.31740909
706.311	44.35355159
706.496	44.39764395
706.68	44.44063272
706.864	44.47692295
707.048	44.51724288
707.232	44.55294458
707.416	44.5922709
707.6	44.61880778
707.785	44.65311208
707.969	44.6856185
708.153	44.71515768
708.337	44.74438177
708.521	44.77876413
708.705	44.81117495
708.889	44.85210153
709.073	44.88206904
709.257	44.92512769
709.441	44.96095808
709.624	44.99636805
709.808	45.03532439
709.992	45.07390336
710.176	45.10434674
710.36	45.13932101
710.544	45.16320286
710.728	45.1928585
710.912	45.22871098
711.095	45.26563381
711.279	45.29783845
711.463	45.33266221
711.647	45.35993377
711.83	45.3982129
712.014	45.44289472
712.198	45.47922018
712.382	45.50716812
712.565	45.53916166
712.749	45.57051721
712.933	45.6047715
713.116	45.63196068
713.3	45.66117299
713.483	45.6965908
713.667	45.73559905
713.851	45.76393852
714.034	45.80043774
714.218	45.83505019
714.401	45.8705772
714.585	45.90708777
714.768	45.9382381
714.952	45.96768283
715.135	45.99787565
715.319	46.03287401
715.502	46.07250255
715.686	46.10388451
715.869	46.13539638
716.052	46.17610319
716.236	46.21394133
716.419	46.25192012
716.602	46.27922359
716.786	46.30848172
716.969	46.33731814
717.152	46.37308272
717.336	46.40229152
717.519	46.4288163
717.702	46.4646885
717.885	46.49594026
718.069	46.52373596
718.252	46.55057205
718.435	46.58198361
718.618	46.61189666
718.801	46.64336224
718.985	46.67630873
719.168	46.70342442
719.351	46.73345606
719.534	46.75240885
719.717	46.77150685
719.9	46.79821293
720.083	46.82590927
720.266	46.85995841
720.449	46.89217122
720.632	46.91784535
720.815	46.95692424
720.998	46.98022795
721.181	47.00130037
721.364	47.0223032
721.547	47.04580295
721.73	47.07422567
721.913	47.09895691
722.096	47.1276398
722.279	47.1558112
722.461	47.18056966
722.644	47.20569447
722.827	47.23025628
723.01	47.25622351
723.193	47.2751046
723.376	47.30510023
723.558	47.33193132
723.741	47.35417461
723.924	47.37620345
724.107	47.38521295
724.289	47.41821617
724.472	47.44443521
724.655	47.46614679
724.837	47.49731031
725.02	47.5282454
725.203	47.55067915
725.385	47.57155514
725.568	47.59045368
725.75	47.61352125
725.933	47.63558483
726.115	47.65055965
726.298	47.67335464
726.481	47.70239773
726.663	47.72675276
726.845	47.75029956
727.028	47.77585758
727.21	47.80979032
727.393	47.8292282
727.575	47.8563284
727.758	47.87632137
727.94	47.90306132
728.122	47.91852437
728.305	47.9467892
728.487	47.9585593
728.67	47.97226631
728.852	47.99356206
729.034	48.03063532
729.216	48.04742791
729.399	48.06712662
729.581	48.08602998
729.763	48.1025422
729.945	48.12333709
730.128	48.13693229
730.31	48.13897851
730.492	48.17034129
730.674	48.18853613
730.856	48.20228989
731.039	48.21559718
731.221	48.23808068
731.403	48.2573033
731.585	48.28446131
731.767	48.30436233
731.949	48.32033785
732.131	48.33546911
732.313	48.36027484
732.495	48.38144551
732.677	48.394948
732.859	48.40726459
733.041	48.42679411
733.223	48.4409868
733.405	48.45898155
733.587	48.4777924
733.769	48.49406357
733.951	48.51211587
734.132	48.53486895
734.314	48.54492648
734.496	48.56034665
734.678	48.58048253
734.86	48.5953626
735.042	48.61537964
735.223	48.62806543
735.405	48.64910988
735.587	48.66995066
735.769	48.69079453
735.95	48.71159785
736.132	48.73093531
736.314	48.74581638
736.495	48.76849962
736.677	48.78392434
736.859	48.80979904
737.04	48.83220219
737.222	48.84884793
737.403	48.86756418
737.585	48.8885896
737.767	48.90514959
737.948	48.93271966
738.13	48.94815627
738.311	48.96650246
738.493	48.98768733
738.674	49.00046521
738.856	49.01077992
739.037	49.02990046
739.219	49.047625
739.4	49.06319726
739.581	49.08684461
739.763	49.10548505
739.944	49.12453733
740.125	49.15023338
740.307	49.17107442
740.488	49.19242714
740.669	49.19839807
740.851	49.22431282
741.032	49.24505198
741.213	49.26809959
741.395	49.28869302
741.576	49.31958386
741.757	49.33619248
741.938	49.35579506
742.119	49.38214973
742.301	49.39814196
742.482	49.42853952
742.663	49.45590151
742.844	49.47087465
743.025	49.48345999
743.206	49.50249308
743.387	49.5154547
743.568	49.52894694
743.749	49.54212462
743.93	49.55883905
744.111	49.56047989
744.292	49.57415306
744.473	49.60581555
744.654	49.61683317
744.835	49.63279731
745.016	49.64310534
745.197	49.66158379
745.378	49.66508935
745.559	49.68004167
745.74	49.70240503
745.921	49.71508486
746.102	49.73443466
746.282	49.74640682
746.463	49.77115248
746.644	49.79428607
746.825	49.80942891
747.006	49.83363281
747.186	49.85223516
747.367	49.88070606
747.548	49.90362307
747.728	49.92548858
747.909	49.96428519
748.09	49.99103326
748.27	49.99877809
748.451	50.0217578
748.632	50.04395603
748.812	50.06784761
748.993	50.08157541
749.173	50.10630131
749.354	50.12853061
749.535	50.13692932
749.715	50.15478507
749.896	50.17323693
750.076	50.19628178
750.257	50.21165861
750.437	50.22550963
750.618	50.24680046
750.798	50.25471529
750.978	50.26938627
751.159	50.27745662
751.339	50.27909163
751.52	50.29374263
751.7	50.30097816
751.88	50.31285271
752.061	50.33054622
752.241	50.34325761
752.421	50.36290135
752.601	50.38052969
752.782	50.4026984
752.962	50.4154684
753.142	50.43515085
753.322	50.45140026
753.503	50.46539131
753.683	50.48021188
753.863	50.5036578
754.043	50.51880734
754.223	50.53957139
754.403	50.56053033
754.583	50.59025606
754.764	50.6110929
754.944	50.63610191
755.124	50.6703071
755.304	50.6892123
755.484	50.70752908
755.664	50.73044271
755.844	50.76571
756.024	50.79224728
756.204	50.8154834
756.384	50.8365692
756.564	50.86694262
756.743	50.89459693
756.923	50.91865093
757.103	50.94633742
757.283	50.97421096
757.463	51.00420013
757.643	51.01879785
757.823	51.04643419
758.002	51.07876877
758.182	51.1063232
758.362	51.12102342
758.542	51.13848093
758.721	51.16580755
758.901	51.20186748
759.081	51.23450027
759.261	51.27069635
759.44	51.30042584
759.62	51.32243319
759.8	51.33528276
759.979	51.36402206
760.159	51.39321116
760.338	51.41876973
760.518	51.44122758
760.698	51.45930382
760.877	51.49011687
761.057	51.52253243
761.236	51.55673163
761.416	51.57604842
761.595	51.57903272
761.775	51.5915755
761.954	51.60717692
762.133	51.62047869
762.313	51.65633805
762.492	51.6728395
762.672	51.68880717
762.851	51.69652324
763.03	51.70445931
763.21	51.71835982
763.389	51.73610826
763.568	51.75624568
763.748	51.75904105
763.927	51.76912237
764.106	51.77784425
764.286	51.80215645
764.465	51.82133675
764.644	51.8289124
764.823	51.82589405
765.002	51.82197132
765.182	51.83521678
765.361	51.86113489
765.54	51.87813336
765.719	51.89660906
765.898	51.91774323
766.077	51.93131924
766.256	51.93660068
766.435	51.94909836
766.614	51.9680742
766.793	51.99127671
766.972	52.0044814
767.151	52.01498099
767.33	52.0355179
767.509	52.05557568
767.688	52.07610511
767.867	52.08868579
768.046	52.10030461
768.225	52.1132459
768.404	52.14318116
768.583	52.1604163
768.762	52.18484739
768.94	52.20092577
769.119	52.21204943
769.298	52.22937242
769.477	52.24531788
769.656	52.26662129
769.834	52.27896812
770.013	52.29433697
770.192	52.31766021
770.37	52.32845978
770.549	52.34318572
770.728	52.35290763
770.906	52.36695593
771.085	52.37341238
771.264	52.3910696
771.442	52.40971525
771.621	52.4271423
771.799	52.44258632
771.978	52.4602285
772.157	52.47563392
772.335	52.48940123
772.514	52.50496223
772.692	52.51578877
772.871	52.53133596
773.049	52.54407957
773.228	52.55892579
773.406	52.57149892
773.584	52.58652439
773.763	52.60101523
773.941	52.6120315
774.119	52.63113444
774.298	52.64726871
774.476	52.67610433
774.655	52.70615082
774.833	52.72847381
775.011	52.75089647
775.189	52.76153975
775.368	52.78010327
775.546	52.79979544
775.724	52.82563512
775.902	52.83112231
776.08	52.86158673
776.259	52.87685406
776.437	52.89528465
776.615	52.903444
776.793	52.93120644
776.971	52.94003226
777.149	52.96599411
777.327	52.99001728
777.505	53.0143557
777.683	53.03162093
777.861	53.05133106
778.04	53.06071062
778.218	53.06932335
778.395	53.07638659
778.573	53.08749981
778.751	53.10127373
778.929	53.12335927
779.107	53.12995698
779.285	53.14024746
779.463	53.14501953
779.641	53.1650853
779.819	53.17219351
779.997	53.18316925
780.174	53.20431351
780.352	53.22604288
780.53	53.22838327
780.708	53.25092935
780.886	53.25255781
781.063	53.25823667
781.241	53.28004997
781.419	53.29403413
781.596	53.30691846
781.774	53.3331863
781.952	53.34020167
782.129	53.34203286
782.307	53.35480433
782.485	53.36455354
782.662	53.3830398
782.84	53.40194605
783.017	53.41675239
783.195	53.42635902
783.372	53.4358197
783.55	53.44245725
783.727	53.45185108
783.905	53.46163092
784.082	53.48841943
784.26	53.50387601
784.437	53.51186795
784.615	53.51861362
784.792	53.53484672
784.969	53.55274007
785.147	53.56866318
785.324	53.58200896
785.501	53.58481595
785.679	53.60839708
785.856	53.63165403
786.033	53.64845712
786.211	53.67020764
786.388	53.67650243
786.565	53.69471823
786.742	53.70440844
786.92	53.7342065
787.097	53.74297478
787.274	53.77967901
787.451	53.79882848
787.628	53.82580408
787.805	53.83578641
787.982	53.84591533
788.16	53.85628365
788.337	53.89019794
788.514	53.89433929
788.691	53.8981067
788.868	53.90810974
789.045	53.92953909
789.222	53.95008491
789.399	53.95987903
789.576	53.97477362
789.753	53.97832622
789.93	53.97815603
790.106	53.97173625
790.283	53.97101486
790.46	53.98479309
790.637	53.98456005
790.814	54.0052122
790.991	54.02048194
791.168	54.03368221
791.344	54.03243322
791.521	54.04437729
791.698	54.07205535
791.875	54.09314474
792.051	54.09468442
792.228	54.11823382
792.405	54.13456403
792.581	54.15100447
792.758	54.14259896
792.935	54.15470345
793.111	54.16026454
793.288	54.17742386
793.465	54.19790552
793.641	54.22295779
793.818	54.24112867
793.994	54.26564704
794.171	54.2889318
794.347	54.29572113
794.524	54.31534178
794.7	54.31700199
794.877	54.32335068
795.053	54.33217401
795.23	54.34861361
795.406	54.34463499
795.583	54.34391924
795.759	54.35497967
795.935	54.35476876
796.112	54.35104007
796.288	54.35968684
796.464	54.37772215
796.641	54.38561177
796.817	54.42045027
796.993	54.43850498
797.169	54.46055915
797.346	54.45914833
797.522	54.47681224
797.698	54.48802712
797.874	54.50433338
798.051	54.51515989
798.227	54.52106197
798.403	54.53769386
798.579	54.55314725
798.755	54.57526422
798.931	54.56200246
799.107	54.57163863
799.283	54.58936911
799.459	54.61558337
799.635	54.64956783
799.811	54.66608682
799.987	54.67039284
800.163	54.69850601
800.339	54.70548514
800.515	54.70171369
800.691	54.70685305
800.867	54.71082269
801.043	54.72074522
801.219	54.73305823
801.395	54.75790379
801.571	54.741495
801.746	54.76476049
801.922	54.75713945
802.098	54.76136947
802.274	54.78469284
802.45	54.77668714
802.625	54.80321633
802.801	54.80289364
802.977	54.81507992
803.152	54.80806573
803.328	54.79269982
803.504	54.7964104
803.679	54.80626452
803.855	54.80921428
804.031	54.80624163
804.206	54.82161699
804.382	54.84056157
804.557	54.86767929
804.733	54.88039161
804.909	54.88200825
805.084	54.88579187
805.26	54.90710238
805.435	54.91328733
805.61	54.95344096
805.786	54.96521919
805.961	54.96441811
806.137	54.99402611
806.312	54.98397653
806.488	54.99708124
806.663	55.00024718
806.838	55.00625389
807.014	55.03008882
807.189	55.04550781
807.364	55.04289147
807.54	55.05615062
807.715	55.07848173
807.89	55.07796765
808.065	55.05180868
808.241	55.01803421
808.416	55.02606022
808.591	55.05754967
808.766	55.0625685
808.941	55.07986013
809.116	55.08091144
809.291	55.0686703
809.467	55.04904409
809.642	55.02215124
809.817	55.03637419
809.992	55.05160207
810.167	55.04207558
810.342	55.06538869
810.517	55.06232254
810.692	55.04668506
810.867	55.0675241
811.042	55.09749395
811.217	55.09333385
811.392	55.09815517
811.567	55.09560658
811.741	55.10624497
811.916	55.14510861
812.091	55.16324708
812.266	55.15724852
812.441	55.14602942
812.616	55.16378493
812.79	55.15566799
812.965	55.1644424
813.14	55.19827577
813.315	55.25588113
813.489	55.25954503
813.664	55.2498591
813.839	55.30746837
814.013	55.29257792
814.188	55.31344104
814.363	55.33931091
814.537	55.33342277
814.712	55.33225891
814.887	55.32854537
815.061	55.35478287
815.236	55.35441084
815.41	55.36454112
815.585	55.36526492
815.759	55.37208283
815.934	55.35852617
816.108	55.37166596
816.283	55.35565765
816.457	55.35883508
816.631	55.36959812
816.806	55.39158387
816.98	55.38993022
817.155	55.34724709
817.329	55.39365789
817.503	55.40226509
817.678	55.43735848
817.852	55.46166382
818.026	55.47981071
818.201	55.49256632
818.375	55.49186028
818.549	55.4833254
818.723	55.46267311
818.897	55.47586153
819.072	55.51572677
819.246	55.53759701
819.42	55.50991027
819.594	55.53932416
819.768	55.54811664
819.942	55.54251059
820.116	55.56406921
820.29	55.54429141
820.465	55.52352446
820.639	55.53249116
820.813	55.55077185
820.987	55.56657528
821.161	55.5986811
821.335	55.62322686
821.509	55.61708741
821.682	55.61466164
821.856	55.62389527
822.03	55.6063548
822.204	55.59763916
822.378	55.63025397
822.552	55.64698377
822.726	55.6555257
822.9	55.65152721
823.073	55.69347598
823.247	55.68682853
823.421	55.69028368
823.595	55.69851387
823.768	55.70590668
823.942	55.71874747
824.116	55.70878723
824.289	55.71679044
824.463	55.78510636
824.637	55.77798146
824.81	55.76507779
824.984	55.72717694
825.158	55.72126826
825.331	55.73916873
825.505	55.74039691
825.678	55.77397613
825.852	55.81108492
826.025	55.79580579
826.199	55.81355211
826.372	55.79992026
826.546	55.82960838
826.719	55.84122122
826.893	55.85442969
827.066	55.8541262
827.24	55.83930493
827.413	55.82153774
827.586	55.84401824
827.76	55.86614811
827.933	55.82088279
828.106	55.76943518
828.28	55.77515994
828.453	55.75480754
828.626	55.75303507
828.799	55.80384732
828.973	55.78971317
829.146	55.81896194
829.319	55.817693
829.492	55.8250135
829.665	55.85428564
829.839	55.8448589
830.012	55.82612633
830.185	55.77284574
830.358	55.73979084
830.531	55.73636116
830.704	55.73179566
830.877	55.7869235
831.05	55.80694445
831.223	55.83468553
831.396	55.86343829
831.569	55.9336536
831.742	55.92814525
831.915	55.9373602
832.088	55.93823789
832.261	55.97777571
832.434	55.9531573
832.607	55.96567663
832.779	55.94006357
832.952	55.91788571
833.125	55.89711626
833.298	55.89024427
833.471	55.91592399
833.643	55.95089894
833.816	55.99203407
833.989	56.00205544
834.162	56.04428368
834.334	56.06171158
834.507	56.02567365
834.68	56.02492486
834.852	55.99346578
835.025	56.0169632
835.198	55.98279447
835.37	56.00248953
835.543	56.00104639
835.715	55.9888995
835.888	55.98578642
836.061	56.00740526
836.233	56.0233335
836.406	56.02129225
836.578	56.0988171
836.751	56.0981155
836.923	56.12887302
837.095	56.08013186
837.268	56.08777528
837.44	56.11959233
837.613	56.12912126
837.785	56.10106801
837.957	56.11399893
838.13	56.16997478
838.302	56.16757259
838.474	56.1745899
838.647	56.16712029
838.819	56.1935591
838.991	56.20089891
839.163	56.20663032
839.336	56.24630051
839.508	56.25135197
839.68	56.22765994
839.852	56.25942936
840.024	56.28340509
840.196	56.26900726
840.368	56.29002318
840.541	56.26820056
840.713	56.27095959
840.885	56.255049
841.057	56.20195086
841.229	56.23968283
841.401	56.2155745
841.573	56.21136508
841.745	56.19009325
841.917	56.20467212
842.089	56.20323827
842.261	56.15282914
842.432	56.17927826
842.604	56.18208789
842.776	56.21130587
842.948	56.215241
843.12	56.16657306
843.292	56.13827634
843.464	56.10702346
843.635	56.06478375
843.807	55.9981116
843.979	56.04820708
844.151	56.01729464
844.322	56.0412903
844.494	56.0689023
844.666	56.07583909
844.837	56.05614675
845.009	56.07055489
845.181	56.04933046
845.352	56.07320966
845.524	56.11207299
845.695	56.12946648
845.867	56.15448504
846.039	56.09552582
846.21	56.11191307
846.382	56.07556252
846.553	56.10192575
846.725	56.16884822
846.896	56.20471083
847.068	56.18327663
847.239	56.18294551
847.41	56.24264346
847.582	56.17364802
847.753	56.23181212
847.925	56.26484311
848.096	56.24830654
848.267	56.26990681
848.439	56.27599387
848.61	56.32592965
848.781	56.35213854
848.952	56.37911094
849.124	56.36246319
849.295	56.39915401
849.466	56.41228641
849.637	56.41113706
849.808	56.37445501
849.98	56.38256287
850.151	56.33635755
850.322	56.36102773
850.493	56.38572324
850.664	56.34027397
850.835	56.33772971
851.006	56.32007581
851.177	56.33031341
851.348	56.29558093
851.519	56.24762365
851.69	56.27400813
851.861	56.34601662
852.032	56.35324815
852.203	56.34239151
852.374	56.32658407
852.545	56.27608735
852.716	56.28972734
852.887	56.25981681
853.057	56.20396457
853.228	56.22490762
853.399	56.25649282
853.57	56.26449293
853.741	56.23350579
853.911	56.23313269
854.082	56.1997329
854.253	56.29901875
854.424	56.37577208
854.594	56.3676973
854.765	56.40198922
854.936	56.36876389
855.106	56.4030345
855.277	56.34603536
855.447	56.29808783
855.618	56.26447091
855.789	56.29267218
855.959	56.35868551
856.13	56.33286987
856.3	56.35826786
856.471	56.34768764
856.641	56.42331818
856.812	56.45547645
856.982	56.43045831
857.153	56.40307741
857.323	56.48539595
857.493	56.47522755
857.664	56.4867026
857.834	56.38932275
858.004	56.39067635
858.175	56.40098224
858.345	56.38463901
858.515	56.4427119
858.686	56.41268267
858.856	56.49389436
859.026	56.46450973
859.196	56.43021425
859.367	56.45319172
859.537	56.44481242
859.707	56.4121742
859.877	56.43662163
860.047	56.4069193
860.217	56.45049266
860.387	56.49088891
860.558	56.53604389
860.728	56.45837425
860.898	56.38165459
861.068	56.36754698
861.238	56.36789751
861.408	56.2950688
861.578	56.32422568
861.748	56.37374114
861.918	56.35352165
862.088	56.29844271
862.257	56.35402695
862.427	56.20248446
862.597	56.13986547
862.767	56.22219609
862.937	56.14054008
863.107	56.09159642
863.277	56.15259551
863.446	56.04589982
863.616	56.08455582
863.786	56.03974
863.956	55.91160267
864.125	55.84849701
864.295	55.91339293
864.465	55.91534265
864.634	55.83415516
864.804	55.80040418
864.974	55.95651103
865.143	55.84148197
865.313	55.80945537
865.482	55.83219295
865.652	55.8055575
865.822	55.6455118
865.991	55.74756704
866.161	55.7497535
866.33	55.60986212
866.5	55.61182861
866.669	55.59560125
866.838	55.6466493
867.008	55.60260362
867.177	55.61005715
867.347	55.5944093
867.516	55.66526263
867.685	55.71928424
867.855	55.75909885
868.024	55.73296285
868.193	55.88074389
868.363	55.94744659
868.532	55.87756597
868.701	55.96599259
868.87	55.8969104
869.04	55.90037614
869.209	55.91155115
869.378	56.03373635
869.547	56.00302184
869.716	55.95865701
869.885	56.09503361
870.055	56.02090398
870.224	55.98323405
870.393	55.85375827
870.562	55.95062856
870.731	55.83042403
870.9	55.80351337
871.069	55.81368488
871.238	55.8729965
871.407	55.76978963
871.576	55.76724434
871.745	55.55874854
871.914	55.51012085
872.083	55.58805895
872.251	55.48114411
872.42	55.58141138
872.589	55.55269503
872.758	55.56615154
872.927	55.59795262
873.096	55.51851239
873.264	55.66093857
873.433	55.60051365
873.602	55.59636814
873.771	55.66475276
873.939	55.72505683
874.108	55.60705465
874.277	55.76117898
874.445	55.66242557
874.614	55.56194445
874.783	55.4755425
874.951	55.6646043
875.12	55.72429155
875.288	55.75150593
875.457	55.8158195
875.625	55.59838705
875.794	55.62085656
875.962	55.47575843
876.131	55.56031687
876.299	55.62710251
876.468	55.56171089
876.636	55.74881444
876.805	55.82612326
876.973	55.78140075
877.141	55.79372604
877.31	55.80502725
877.478	55.76060739
877.647	55.92293976
877.815	55.77993815
877.983	55.9091237
878.151	55.87692729
878.32	55.94580893
878.488	55.90000086
878.656	55.71850368
878.824	55.78464454
878.992	55.91178231
879.161	56.07666987
879.329	56.20867369
879.497	56.24687046
879.665	56.20429709
879.833	56.13363619
880.001	56.14313892
880.169	55.84579956
880.337	55.79963929
880.505	55.92329425
880.673	55.97151167
880.841	55.85067348
881.009	55.90025218
881.177	55.71835088
881.345	55.78214038
881.513	55.57337905
881.681	55.63363313
881.849	55.59423188
882.017	55.49250138
882.185	55.64930406
882.352	55.67951193
882.52	55.52011802
882.688	55.4521352
882.856	55.317326
883.024	55.36597012
883.191	55.26972141
883.359	55.17481243
883.527	54.83132238
883.694	54.98293545
883.862	54.78610476
884.03	54.71671677
884.197	54.6758671
884.365	54.58878737
884.533	54.38843407
884.7	54.38844696
884.868	54.58896628
885.035	54.6345828
885.203	54.57685727
885.37	54.47196022
885.538	54.37983508
885.705	54.30564099
885.873	54.17358266
886.04	53.8880092
886.208	53.85739132
886.375	53.64870435
886.542	53.50021502
886.71	53.47102191
886.877	53.62327571
