Data from blue_paint_Reflection_001.txt Node
Date: Tue Nov 21 14:24:35 AEST 2023
User: uqkchene_local
Spectrometer: USB4E02642
Trigger mode: 4
Integration Time (sec): 7.600000E-2
Scans to average: 10
Electric dark correction enabled: true
Nonlinearity correction enabled: false
Boxcar width: 10
XAxis mode: Wavelengths
Number of Pixels in Spectrum: 3648
>>>>>Begin Spectral Data<<<<<
179.217	26.43678161
179.432	-0.96153846
179.647	-12.08499336
179.862	-14.28571429
180.077	-297.03703704
180.293	-113.43283582
180.508	16.76300578
180.723	30.71895425
180.938	-940.00000001
181.153	-125.80645161
181.368	229.03225806
181.583	169.29133858
181.798	-192.61744966
182.013	141.46868251
182.228	100.71556351
182.443	70.47835991
182.658	68.03688052
182.873	43.54622599
183.088	26.18025751
183.303	40.18277485
183.518	30.20134228
183.733	39.01965018
183.948	46.24742654
184.162	48.20373623
184.377	44.66637076
184.592	41.27068873
184.807	44.85935187
185.022	44.67722705
185.237	52.68215971
185.452	55.84680355
185.667	59.06070004
185.882	57.3793689
186.096	59.16014821
186.311	54.51608735
186.526	61.91259077
186.741	56.00877759
186.956	57.21408068
187.17	61.00799759
187.385	64.17910448
187.6	78.94736842
187.815	83.45075701
188.03	81.61584044
188.244	84.89969989
188.459	80.43027888
188.674	91.42695995
188.889	102.35820289
189.103	101.60026671
189.318	105.10221912
189.533	107.16337219
189.747	99.71464241
189.962	97.73233448
190.177	100.62794349
190.391	96.92645445
190.606	98.19703799
190.821	99.01421801
191.035	81.19563206
191.25	91.76954733
191.465	84.15458937
191.679	80.18699025
191.894	90.41862548
192.109	84.4333421
192.323	104.98054475
192.538	117.56652028
192.752	98.10938555
192.967	97.52168525
193.181	88.2590186
193.396	82.00134318
193.611	82.43458476
193.825	86.23796846
194.04	80.96941513
194.254	86.74399337
194.469	87.41058655
194.683	86.06034849
194.898	79.02154764
195.112	73.58751209
195.327	69.58872686
195.541	78.69322469
195.756	74.93778363
195.97	82.04587027
196.184	89.62120161
196.399	82.93079715
196.613	82.61466316
196.828	76.12501469
197.042	69.79202974
197.257	68.84312538
197.471	63.79773444
197.685	60.3111909
197.9	59.83635301
198.114	51.74635907
198.328	44.99800717
198.543	50.20594966
198.757	50.97018457
198.971	61.14064766
199.186	57.3142234
199.4	63.59330063
199.614	72.02797203
199.829	77.24084178
200.043	72.05807003
200.257	87.87398455
200.471	71.4445898
200.686	76.67011375
200.9	76.6361117
201.114	67.82259967
201.328	60.83352005
201.543	68.12390707
201.757	80.1894452
201.971	89.1440501
202.185	92.86198328
202.399	94.84346225
202.614	115.98053133
202.828	131.14266087
203.042	118.23517903
203.256	109.80884341
203.47	93.62372567
203.684	112.42817621
203.899	113.7620868
204.113	98.73604382
204.327	95.73930312
204.541	103.33395073
204.755	99.11553344
204.969	116.19761085
205.183	105.35017648
205.397	108.17279626
205.611	108.41594174
205.825	116.32820513
206.039	114.02669855
206.253	106.18744313
206.467	103.57212192
206.681	94.21904928
206.895	90.82247715
207.109	61.56340672
207.323	60.88727931
207.537	53.05103848
207.751	48.63272398
207.965	51.08542871
208.179	47.58544348
208.393	53.20039046
208.607	59.41312741
208.821	53.24675325
209.035	43.15401374
209.249	55.3589857
209.463	52.23880597
209.677	51.42814416
209.891	45.92843469
210.104	40.6772855
210.318	36.90022348
210.532	33.77917292
210.746	30.9773769
210.96	24.98797884
211.174	22.31980116
211.387	30.59977488
211.601	40.50965251
211.815	35.87250996
212.029	43.27199055
212.243	53.53941833
212.456	51.33551611
212.67	48.61190886
212.884	51.77710305
213.098	55.88918677
213.311	53.22421613
213.525	64.85585409
213.739	57.86895285
213.953	60.90225564
214.166	53.90639567
214.38	65.32988357
214.594	75.96855699
214.807	74.8890298
215.021	73.38446788
215.235	79.98380567
215.448	82.03875847
215.662	85.82207405
215.876	80.9321283
216.089	90.89330504
216.303	90.96945551
216.516	88.58534888
216.73	87.04761905
216.944	101.26700205
217.157	108.26196474
217.371	96.42101838
217.584	85.54429264
217.798	90.58892299
218.011	88.45776719
218.225	81.24094322
218.439	74.049217
218.652	76.42128789
218.866	77.18712435
219.079	72.62814889
219.293	71.36016418
219.506	67.22073695
219.719	63.98553436
219.933	66.57191586
220.146	69.67271981
220.36	73.12252964
220.573	68.12328906
220.787	69.05147297
221	63.6677827
221.214	61.33497042
221.427	52.49708408
221.64	49.69443551
221.854	50.38424072
222.067	57.83747025
222.28	50.03988604
222.494	49.10020232
222.707	41.74757282
222.92	47.85982782
223.134	52.0383693
223.347	44.41252907
223.56	47.2585624
223.774	48.84213713
223.987	47.22619615
224.2	46.98039216
224.414	42.4933687
224.627	45.6130588
224.84	28.61439743
225.053	25.34541336
225.267	18.19420121
225.48	15.67149758
225.693	15.24587051
225.906	15.1282666
226.119	0.77133615
226.333	-3.35147522
226.546	-51.42951035
226.759	-22.39747634
226.972	-39.89071038
227.185	-15.39918809
227.398	-14.92579109
227.612	-4.94893951
227.825	1.89441778
228.038	4.05151596
228.251	-8.82429955
228.464	7.27465536
228.677	13.63732768
228.89	23.12911594
229.103	1.0237421
229.316	15.13677812
229.529	25.00411523
229.743	37.22654131
229.956	48.41849148
230.169	39.503386
230.382	45.38246953
230.595	40.96156656
230.808	43.68734563
231.021	59.06689006
231.234	57.68552653
231.447	52.55162997
231.66	45.55753358
231.872	49.13624221
232.085	43.78416505
232.298	35.08087005
232.511	32.17671257
232.724	38.7643521
232.937	44.02555911
233.15	41.78190886
233.363	27.27272727
233.576	40.64775295
233.789	39.39673037
234.002	46.03074992
234.214	20.90724048
234.427	15.74334898
234.64	33.86632555
234.853	10.6486299
235.066	14.45825933
235.279	40.14784604
235.491	23.97568068
235.704	35.59257132
235.917	48.72536612
236.13	53.14179796
236.342	48.05560443
236.555	44.68170026
236.768	51.08103647
236.981	49.19045235
237.193	55.30105848
237.406	51.48641255
237.619	47.98268398
237.832	51.6589197
238.044	52.11831767
238.257	61.16022956
238.47	62.25575854
238.682	68.61000794
238.895	57.06406449
239.108	54.0002904
239.32	61.99907164
239.533	65.88295864
239.746	66.63119813
239.958	64.33374844
240.171	55.67480547
240.383	61.27465857
240.596	79.52797666
240.808	80.6362379
241.021	83.66884037
241.234	104.93624023
241.446	81.88197767
241.659	91.23349255
241.871	86.24366836
242.084	83.57405834
242.296	94.93968814
242.509	102.9010734
242.721	108.99342788
242.934	85.7831937
243.146	82.50555967
243.359	114.02555042
243.571	134.33476395
243.784	131.55127082
243.996	127.24235415
244.208	108.83625598
244.421	106.37113798
244.633	119.53435548
244.846	103.85244412
245.058	93.99374348
245.27	82.21015108
245.483	75.73431734
245.695	80.94451329
245.907	93.68516013
246.12	78.90736342
246.332	83.56338252
246.544	91.47736174
246.757	87.07236324
246.969	74.49644101
247.181	64.44061468
247.394	70.23042794
247.606	69.8576779
247.818	60.96827545
248.03	60.20029074
248.243	59.65037971
248.455	52.11678832
248.667	52.11376858
248.879	53.57297531
249.092	45.0857053
249.304	51.28847003
249.516	52.47186209
249.728	54.39875065
249.94	60.972383
250.153	55.69186361
250.365	49.3767977
250.577	68.92536744
250.789	67.99384497
251.001	56.93078161
251.213	59.63564922
251.425	73.17325605
251.637	68.04503139
251.85	61.38113042
252.062	59.23398635
252.274	65.19969473
252.486	54.20302192
252.698	54.76012926
252.91	72.64226556
253.122	54.63917526
253.334	47.17864669
253.546	43.06049822
253.758	35.68889818
253.97	41.67495524
254.182	41.06984183
254.394	34.30055526
254.606	35.61283535
254.818	38.33097595
255.03	28.53265208
255.242	30.41309431
255.454	31.9035744
255.666	21.75592625
255.877	24.37941805
256.089	37.73897336
256.301	33.57379887
256.513	35.24209264
256.725	31.40324145
256.937	36.35943991
257.149	38.27570587
257.361	32.745479
257.572	42.06235012
257.784	43.67724446
257.996	48.61524018
258.208	47.04362365
258.42	37.39023263
258.631	41.58430447
258.843	43.67729264
259.055	35.62321884
259.267	35.94871012
259.479	38.46153846
259.69	36.97492944
259.902	32.47466941
260.114	44.88805386
260.325	40.19523891
260.537	36.40919302
260.749	41.3130352
260.961	43.17833418
261.172	57.76740971
261.384	49.79990395
261.596	58.93972649
261.807	55.97978664
262.019	51.72024817
262.23	51.98261814
262.442	50.79743355
262.654	49.86731986
262.865	62.01730323
263.077	69.72744112
263.288	72.68588771
263.5	74.07504592
263.712	74.37145174
263.923	76.88970084
264.135	85.06814142
264.346	84.53301606
264.558	75.65623177
264.769	84.16366736
264.981	86.27968338
265.192	77.09955799
265.404	75.53038105
265.615	56.87351272
265.827	52.34261794
266.038	40.88986142
266.25	38.99646643
266.461	37.68059352
266.673	38.21269713
266.884	41.58429626
267.095	46.36122363
267.307	45.77344059
267.518	43.33129957
267.73	43.00604051
267.941	40.40866873
268.152	39.93610224
268.364	26.06786427
268.575	11.5143429
268.786	20.69178505
268.998	24.61197339
269.209	15.32486746
269.42	16.81134613
269.632	22.19712282
269.843	27.19308357
270.054	28.08608391
270.265	39.26598748
270.477	39.0610697
270.688	49.40285091
270.899	45.69023119
271.11	41.56775792
271.322	44.11648957
271.533	48.23948138
271.744	46.61704107
271.955	39.59341723
272.166	42.62989096
272.378	51.77052925
272.589	57.14479209
272.8	69.86335098
273.011	74.72862544
273.222	71.78879041
273.433	69.13435174
273.644	77.62163595
273.856	89.19983125
274.067	86.60422875
274.278	80.18673841
274.489	87.80766096
274.7	81.2687754
274.911	69.03310822
275.122	63.20313678
275.333	67.89316664
275.544	69.40460669
275.755	63.49787608
275.966	53.65196426
276.177	53.7951894
276.388	60.61072979
276.599	62.84123319
276.81	60.17213236
277.021	54.11369282
277.232	49.83843668
277.443	56.51014664
277.654	52.00255306
277.865	46.35457852
278.076	44.55967078
278.287	35.49157094
278.497	40.35487547
278.708	45.05391467
278.919	42.66441821
279.13	50.70123247
279.341	52.70910721
279.552	46.429061
279.763	48.70746312
279.973	58.0778032
280.184	59.91495393
280.395	68.79831342
280.606	63.38914768
280.817	64.9378375
281.027	61.42365098
281.238	58.63986854
281.449	64.09551194
281.66	60.26394721
281.87	54.45283471
282.081	59.07774302
282.292	62.28808925
282.503	63.53287936
282.713	59.72594578
282.924	59.12325648
283.135	60.50652195
283.345	60.20827624
283.556	54.51312122
283.767	57.81859713
283.977	60.39833704
284.188	56.8306537
284.399	51.28323061
284.609	51.15091977
284.82	49.591464
285.03	57.66597849
285.241	57.31568607
285.451	52.85699253
285.662	55.48205078
285.873	54.39477649
286.083	55.9435284
286.294	55.71021829
286.504	55.46497908
286.715	52.42751563
286.925	46.34561596
287.136	45.99341383
287.346	48.38709677
287.557	51.8243166
287.767	48.39938117
287.978	48.68749258
288.188	42.80486211
288.399	44.45475023
288.609	50.7639583
288.819	54.04896422
289.03	53.74342946
289.24	59.62858296
289.451	52.06592113
289.661	53.8330701
289.871	62.89316523
290.082	59.71410006
290.292	59.02303507
290.502	61.19507909
290.713	62.54586866
290.923	62.96209913
291.133	59.87923516
291.344	58.09391946
291.554	60.3045812
291.764	55.71594278
291.974	47.5157973
292.185	54.97591352
292.395	56.94841588
292.605	60.49030108
292.815	56.52478134
293.026	48.44989948
293.236	45.25491901
293.446	42.40484228
293.656	35.04922311
293.866	31.0051786
294.077	26.82597543
294.287	22.91746641
294.497	20.81599785
294.707	15.08086842
294.917	20.11906373
295.127	20.27576019
295.337	16.558226
295.548	19.97821054
295.758	25.15894641
295.968	24.44947779
296.178	26.72984551
296.388	39.50326072
296.598	32.86035646
296.808	31.91156329
297.018	37.35620585
297.228	40.06251149
297.438	45.3968254
297.648	43.18863773
297.858	58.03657363
298.068	54.55100794
298.278	65.23371504
298.488	59.63095462
298.698	59.41328732
298.908	61.68210111
299.118	52.88953914
299.328	52.44424753
299.538	57.53351206
299.748	57.60809568
299.957	57.78289357
300.167	59.46555613
300.377	64.79134989
300.587	55.79184791
300.797	45.38946651
301.007	42.72076372
301.217	44.01001809
301.426	44.65099101
301.636	48.25966518
301.846	43.46680055
302.056	40.02126905
302.266	32.09890742
302.475	40.06633879
302.685	37.94443809
302.895	41.1802369
303.105	39.08751655
303.314	39.17594954
303.524	50.44750675
303.734	48.71223723
303.944	48.34141864
304.153	48.64367252
304.363	47.037271
304.573	49.0481666
304.782	51.673142
304.992	57.26340387
305.202	61.81431963
305.411	68.84569298
305.621	69.51840019
305.831	63.9451339
306.04	64.00877835
306.25	70.98233834
306.459	75.57161823
306.669	79.56423742
306.878	70.07077856
307.088	68.24625354
307.298	71.09186426
307.507	71.24625602
307.717	62.6788201
307.926	52.6088479
308.136	52.86100341
308.345	52.33306046
308.555	53.20989023
308.764	53.82451585
308.974	56.6866973
309.183	55.03331314
309.392	51.12313301
309.602	50.06293626
309.811	46.85630432
310.021	40.61610788
310.23	46.07941275
310.44	45.35104364
310.649	49.97066761
310.858	54.32143286
311.068	54.43163506
311.277	49.60872354
311.486	53.56158993
311.696	52.06070915
311.905	51.26436782
312.114	57.59434591
312.324	71.76205878
312.533	66.87310961
312.742	63.89179495
312.952	60.30159565
313.161	47.54423681
313.37	36.97338403
313.579	34.14818168
313.789	39.28079572
313.998	36.25721867
314.207	30.40762143
314.416	32.35936188
314.625	34.53733011
314.835	29.52763086
315.044	22.01883775
315.253	19.63320779
315.462	19.97453446
315.671	38.50942417
315.88	26.45635765
316.09	27.77662875
316.299	32.91500285
316.508	37.17404488
316.717	32.06021119
316.926	40.89709763
317.135	46.45280691
317.344	50.36897203
317.553	64.32858858
317.762	65.29180216
317.971	68.48569925
318.18	71.40366173
318.389	73.4130473
318.598	71.97703035
318.807	67.89651624
319.016	65.81196581
319.225	77.2285122
319.434	75.93017915
319.643	86.10185626
319.852	84.16452442
320.061	68.70317962
320.27	70.85259848
320.479	64.5658041
320.688	67.91002812
320.897	62.45374878
321.105	60.32942001
321.314	47.60161819
321.523	47.11556648
321.732	37.87134503
321.941	35.61795269
322.15	28.27064112
322.359	21.96987808
322.567	7.51898114
322.776	12.62987763
322.985	18.59851212
323.194	27.6013905
323.403	43.28296419
323.611	40.85603113
323.82	58.00926859
324.029	44.40508439
324.237	54.37574927
324.446	54.34747012
324.655	56.5858234
324.864	54.74962569
325.072	53.39151738
325.281	51.83761341
325.49	49.53362788
325.698	62.10802824
325.907	61.52661304
326.116	60.49915267
326.324	64.35901613
326.533	76.05611847
326.741	77.84536578
326.95	84.55917395
327.159	84.00251929
327.367	88.47022052
327.576	74.29914679
327.784	67.56164384
327.993	63.45248474
328.201	51.33735979
328.41	55.91448931
328.618	51.54293775
328.827	55.16244259
329.035	51.51054532
329.244	58.70883172
329.452	63.24055357
329.661	60.94021139
329.869	55.55555556
330.078	54.28892321
330.286	61.94039824
330.495	76.60304819
330.703	78.64318151
330.911	76.45425517
331.12	68.84895165
331.328	60.0265428
331.537	54.27142659
331.745	54.01264933
331.953	62.60608435
332.162	57.9986292
332.37	57.72590577
332.578	66.14052242
332.787	61.13430258
332.995	60.48467569
333.203	63.58569438
333.411	68.44862117
333.62	64.04880564
333.828	51.58591166
334.036	52.10747271
334.244	54.52275783
334.453	56.65826711
334.661	38.85907374
334.869	32.95092416
335.077	30.96844396
335.285	14.82317532
335.494	44.23910564
335.702	51.45680263
335.91	49.40711462
336.118	42.85714286
336.326	31.57751833
336.534	44.78270974
336.742	39.59824521
336.951	22.43221035
337.159	27.57753562
337.367	14.20472441
337.575	3.80495013
337.783	5.59466469
337.991	30.76678333
338.199	44.76026414
338.407	67.05528394
338.615	81.34397054
338.823	70.40169133
339.031	99.3608522
339.239	86.95756413
339.447	84.93317132
339.655	82.01250252
339.863	79.5701213
340.071	66.23435722
340.279	73.01974706
340.487	77.43948091
340.695	65.95910419
340.903	60.28062601
341.11	66.1543337
341.318	69.24068999
341.526	67.58585688
341.734	68.93007582
341.942	62.88659794
342.15	63.97417729
342.358	60.58230683
342.565	55.93552908
342.773	54.46742648
342.981	49.80872226
343.189	58.26664653
343.397	45.12960876
343.604	46.38974525
343.812	53.53695205
344.02	60.10041841
344.228	53.19217715
344.435	75.58849172
344.643	71.39160968
344.851	70.29985721
345.058	77.01400255
345.266	80.93579978
345.474	65.50344521
345.681	59.38824397
345.889	63.04461942
346.097	67.67615279
346.304	65.49898801
346.512	56.53552385
346.72	54.17159375
346.927	59.91422445
347.135	58.34153197
347.342	52.960392
347.55	48.54915548
347.758	47.63911085
347.965	46.13724644
348.173	50.16393443
348.38	50.12614527
348.588	52.38223057
348.795	51.95280236
349.003	53.98449612
349.21	55.9295054
349.418	61.79591837
349.625	59.90139688
349.833	62.65074627
350.04	59.56748876
350.247	71.69565732
350.455	71.88667872
350.662	73.6950624
350.87	81.83249016
351.077	81.01582015
351.284	80.39995322
351.492	74.48550313
351.699	75.61029009
351.906	74.51697128
352.114	74.05031062
352.321	76.94364239
352.528	68.95943563
352.736	69.52222338
352.943	66.06490661
353.15	64.23089756
353.358	64.48213204
353.565	64.91485973
353.772	61.63453377
353.979	66.0740573
354.187	67.78874747
354.394	73.35921388
354.601	61.96639701
354.808	59.79230462
355.015	61.93592365
355.223	61.49343047
355.43	66.38524484
355.637	62.69770973
355.844	69.60216775
356.051	72.46321177
356.258	77.49441304
356.465	76.95157787
356.673	78.79995171
356.88	81.34905043
357.087	79.5438839
357.294	81.25726088
357.501	74.4540196
357.708	81.35024245
357.915	83.13946216
358.122	88.28906733
358.329	78.14491999
358.536	76.21837218
358.743	72.72850007
358.95	71.22457228
359.157	72.15155246
359.364	68.92321672
359.571	56.86336886
359.778	52.91351805
359.985	53.7479482
360.192	50.50784857
360.399	40.10774661
360.606	32.7256479
360.812	31.85475957
361.019	26.60918388
361.226	22.84977736
361.433	19.98346766
361.64	2.64097074
361.847	6.58399764
362.054	2.78718416
362.26	-16.69560903
362.467	-15.08500108
362.674	1.52657005
362.881	8.73284265
363.088	17.92841827
363.294	11.8611066
363.501	16.86876439
363.708	23.66184583
363.915	27.76419842
364.121	35.96734218
364.328	39.90216632
364.535	41.21090741
364.741	49.69009826
364.948	53.75131559
365.155	50.02166691
365.361	49.07128116
365.568	41.96677936
365.775	43.43686593
365.981	49.25896414
366.188	48.73248307
366.395	49.36069455
366.601	64.38566815
366.808	58.62999831
367.014	53.07182518
367.221	51.57487243
367.427	60.35558918
367.634	77.01665731
367.84	66.99622506
368.047	63.94595595
368.254	74.9950387
368.46	59.27466312
368.667	45.6879407
368.873	38.77757198
369.079	36.56183677
369.286	26.63463547
369.492	26.86665207
369.699	16.57209939
369.905	35.36650615
370.112	35.58314391
370.318	38.3113714
370.524	35.47622574
370.731	35.49171607
370.937	23.65940349
371.144	28.49577787
371.35	35.84089927
371.556	40.30089203
371.763	34.98179992
371.969	32.86713287
372.175	39.02536184
372.381	35.91414335
372.588	29.31101596
372.794	31.27902068
373	36.41663428
373.206	35.76606463
373.413	30.40517535
373.619	31.26075949
373.825	32.50224394
374.031	35.96349463
374.238	29.76156
374.444	27.37461474
374.65	26.25909477
374.856	24.64362629
375.062	23.54654298
375.268	27.26503859
375.475	27.77960707
375.681	33.06258461
375.887	26.69062398
376.093	19.8702352
376.299	19.44283227
376.505	27.51563991
376.711	33.56790992
376.917	36.19130942
377.123	37.24874988
377.329	38.345116
377.535	39.96187418
377.741	46.95103013
377.947	41.3157053
378.153	40.20895831
378.359	42.31935585
378.565	46.33253012
378.771	52.72549976
378.977	48.09628848
379.183	46.45998432
379.389	44.78577865
379.595	46.09121809
379.801	43.73771523
380.007	36.58181818
380.213	37.10611953
380.418	39.6038835
380.624	40.34789331
380.83	31.24288209
381.036	27.14519523
381.242	23.71180687
381.448	20.30844517
381.653	20.64814114
381.859	16.77550101
382.065	15.54511144
382.271	21.88598608
382.476	22.65966754
382.682	21.50445398
382.888	17.9132703
383.094	10.72733311
383.299	13.57850975
383.505	16.31714844
383.711	19.1486698
383.916	18.27687684
384.122	20.54977802
384.328	21.39899895
384.533	20.41381858
384.739	24.28060716
384.945	20.24715373
385.15	24.91435871
385.356	27.0511329
385.562	29.56283848
385.767	32.52106704
385.973	29.60283171
386.178	29.76839578
386.384	29.26428891
386.589	26.69547065
386.795	25.4264419
387	24.65102317
387.206	23.1406226
387.411	27.33198361
387.617	28.96781354
387.822	26.58743312
388.028	24.29342648
388.233	24.81350784
388.439	24.58742244
388.644	24.39821694
388.85	24.20225001
389.055	21.49913088
389.26	23.64728634
389.466	21.24302405
389.671	21.77226128
389.877	20.4388303
390.082	19.49936653
390.287	21.29441916
390.493	20.45637276
390.698	21.11182641
390.903	21.76362339
391.109	24.07006075
391.314	25.46210559
391.519	25.4291584
391.724	25.78568724
391.93	24.1915445
392.135	24.83202589
392.34	25.44112039
392.545	24.15209996
392.751	22.36448014
392.956	22.47826774
393.161	22.16255138
393.366	20.12156375
393.571	18.77096403
393.776	16.22846782
393.982	14.06711157
394.187	12.17357733
394.392	11.13163261
394.597	10.33416831
394.802	10.3728112
395.007	9.76817448
395.212	9.53849925
395.417	9.06090772
395.622	8.69422307
395.827	8.61365038
396.032	8.04364777
396.237	8.04706221
396.442	7.88698866
396.647	7.68852912
396.852	7.61351325
397.057	7.6939543
397.262	7.76349643
397.467	7.87615426
397.672	7.90918468
397.877	7.70534368
398.082	7.80465956
398.287	7.81755595
398.492	8.01169779
398.697	8.03322938
398.902	7.96416364
399.107	8.00892162
399.311	7.92288199
399.516	7.89229935
399.721	7.8557217
399.926	7.86042557
400.131	7.78694929
400.336	7.90574685
400.54	7.88766538
400.745	7.89430468
400.95	7.95734176
401.155	7.90073813
401.359	7.76898819
401.564	7.64705294
401.769	7.57879671
401.974	7.52948009
402.178	7.73135406
402.383	7.77581683
402.588	7.76101023
402.792	7.82891211
402.997	7.73317306
403.202	7.77459181
403.406	7.68564253
403.611	7.83416902
403.815	7.74340478
404.02	7.70164296
404.225	7.59808646
404.429	7.67657598
404.634	7.73428955
404.838	7.81581235
405.043	7.67089784
405.247	7.73021193
405.452	7.88932213
405.656	8.08946363
405.861	8.26902412
406.065	8.29023106
406.27	8.50103946
406.474	8.45654669
406.679	8.44001613
406.883	8.42914008
407.088	8.53666765
407.292	8.56064306
407.497	8.81118253
407.701	8.88687379
407.905	9.01669367
408.11	9.16812691
408.314	9.31650635
408.518	9.52400522
408.723	9.80660431
408.927	9.94525335
409.131	10.16971721
409.336	10.6965985
409.54	10.84630892
409.744	10.79310307
409.949	10.97202737
410.153	11.14971998
410.357	11.07598775
410.561	11.20277327
410.766	10.99190931
410.97	11.20565632
411.174	11.42384175
411.378	11.18875552
411.582	11.62267868
411.787	11.41090214
411.991	11.55237594
412.195	11.43152096
412.399	11.69558061
412.603	12.12739963
412.807	12.12679134
413.011	12.16638966
413.215	12.24500718
413.419	12.01669087
413.624	11.79181894
413.828	11.75155911
414.032	12.01355757
414.236	12.04391247
414.44	12.05375348
414.644	12.36360215
414.848	12.3152746
415.052	12.68648789
415.256	12.89755139
415.46	12.82364148
415.664	12.95009342
415.868	13.0703328
416.072	13.16985552
416.275	13.34541652
416.479	13.66796749
416.683	13.58543371
416.887	13.39663232
417.091	13.51865385
417.295	13.57578765
417.499	13.51719737
417.703	13.65202609
417.906	13.73369779
418.11	13.87585832
418.314	14.04591761
418.518	14.0261421
418.722	14.10000256
418.925	14.02393136
419.129	14.14280625
419.333	14.16568882
419.537	14.086001
419.74	14.24469106
419.944	14.28220416
420.148	14.26103771
420.352	14.50795
420.555	14.62084385
420.759	14.47398138
420.963	14.48681471
421.166	14.57637611
421.37	14.64085958
421.573	14.67395273
421.777	14.84484478
421.981	14.75661596
422.184	14.92909321
422.388	14.82951855
422.591	14.80158493
422.795	14.97392839
422.999	14.98120629
423.202	15.08743913
423.406	15.12516352
423.609	15.21811812
423.813	15.16495316
424.016	15.06559364
424.22	15.13590855
424.423	15.04589052
424.627	15.01660336
424.83	15.06704724
425.033	15.13809487
425.237	15.33758652
425.44	15.48462817
425.644	15.53941844
425.847	15.76443417
426.05	15.93052773
426.254	16.08914408
426.457	16.10760551
426.66	16.23124396
426.864	16.23664179
427.067	16.26671705
427.27	16.37132239
427.474	16.41040336
427.677	16.42705942
427.88	16.46388041
428.084	16.52478516
428.287	16.62706926
428.49	16.6444418
428.693	16.6827818
428.896	16.73217031
429.1	16.74750479
429.303	16.76217581
429.506	16.7875165
429.709	16.80183444
429.912	16.82659495
430.116	16.80284612
430.319	16.79174857
430.522	16.80484172
430.725	16.84166821
430.928	16.86507623
431.131	16.93382813
431.334	16.93473185
431.537	16.92943397
431.74	16.93074348
431.943	16.98305413
432.146	17.02119093
432.349	17.04512559
432.552	17.06019836
432.755	17.09177815
432.958	17.13423281
433.161	17.15168692
433.364	17.21098209
433.567	17.27855108
433.77	17.34283133
433.973	17.39715487
434.176	17.45825428
434.379	17.51576462
434.582	17.55745811
434.785	17.60039764
434.988	17.64619754
435.19	17.68840657
435.393	17.71135159
435.596	17.80994516
435.799	17.85694471
436.002	17.92943945
436.205	17.96603478
436.407	17.98877557
436.61	18.05351438
436.813	18.09985358
437.016	18.19028425
437.218	18.24719605
437.421	18.33165859
437.624	18.33151826
437.827	18.39177653
438.029	18.41580361
438.232	18.46727904
438.435	18.52865309
438.637	18.6095225
438.84	18.68045534
439.043	18.7670537
439.245	18.84110666
439.448	18.90974336
439.65	19.01046845
439.853	19.04100699
440.056	19.10412049
440.258	19.22408168
440.461	19.28662392
440.663	19.4359529
440.866	19.51067256
441.068	19.66562987
441.271	19.73834884
441.473	19.89262404
441.676	20.01601342
441.878	20.15546794
442.081	20.27764814
442.283	20.44003579
442.486	20.59172004
442.688	20.71604613
442.89	20.7610328
443.093	20.89148319
443.295	21.00623449
443.498	21.09545706
443.7	21.11383856
443.902	21.1532622
444.105	21.26330685
444.307	21.40855503
444.509	21.48988619
444.712	21.62660256
444.914	21.64448799
445.116	21.71169149
445.319	21.73193956
445.521	21.74305812
445.723	21.71713828
445.925	21.73231173
446.128	21.7400687
446.33	21.73387481
446.532	21.68901934
446.734	21.65975104
446.936	21.64770032
447.139	21.67477277
447.341	21.68901716
447.543	21.71893846
447.745	21.71856515
447.947	21.75334849
448.149	21.70760111
448.351	21.68304497
448.553	21.64525503
448.755	21.67396369
448.958	21.66324361
449.16	21.60579
449.362	21.57582949
449.564	21.45037469
449.766	21.46616105
449.968	21.51398804
450.17	21.47080725
450.372	21.53675686
450.574	21.57385508
450.776	21.52803121
450.978	21.47750171
451.179	21.49707805
451.381	21.50540627
451.583	21.51983008
451.785	21.46159616
451.987	21.41219047
452.189	21.48848206
452.391	21.51371314
452.593	21.47212079
452.795	21.47731053
452.996	21.35033637
453.198	21.28731833
453.4	21.29858498
453.602	21.27963736
453.804	21.33000845
454.005	21.30386444
454.207	21.2151412
454.409	21.08383396
454.611	20.97568805
454.812	20.92416822
455.014	20.93790614
455.216	20.91160327
455.417	20.83305933
455.619	20.80874082
455.821	20.71754843
456.022	20.68714728
456.224	20.69390065
456.426	20.58073442
456.627	20.50868675
456.829	20.56786305
457.031	20.49348353
457.232	20.47268369
457.434	20.45832981
457.635	20.48066254
457.837	20.45782014
458.038	20.3552593
458.24	20.34042056
458.441	20.30973834
458.643	20.3282566
458.844	20.31575728
459.046	20.29225477
459.247	20.20775489
459.449	20.17164783
459.65	20.10551149
459.852	20.08583449
460.053	20.07456712
460.254	20.03950873
460.456	19.96112832
460.657	19.98167692
460.859	19.92555927
461.06	19.83086397
461.261	19.85620298
461.463	19.89520394
461.664	19.83678561
461.865	19.70315914
462.066	19.59494524
462.268	19.55595002
462.469	19.4392833
462.67	19.39932248
462.872	19.42072595
463.073	19.38925436
463.274	19.24992959
463.475	19.15375403
463.676	19.13278972
463.878	19.19095872
464.079	19.09338264
464.28	19.00717988
464.481	18.94801252
464.682	18.87013653
464.883	18.72285599
465.085	18.78598146
465.286	18.73537414
465.487	18.64368781
465.688	18.49330207
465.889	18.41744892
466.09	18.38585202
466.291	18.32562997
466.492	18.31149983
466.693	18.29998172
466.894	18.21530359
467.095	18.05972217
467.296	17.93524274
467.497	17.86918679
467.698	17.8762602
467.899	17.76066949
468.1	17.58712431
468.301	17.59870275
468.502	17.52358647
468.703	17.55252892
468.903	17.56260866
469.104	17.5158088
469.305	17.40427225
469.506	17.29675912
469.707	17.19701254
469.908	17.1661623
470.109	17.05589224
470.309	16.964651
470.51	16.94775679
470.711	16.84297818
470.912	16.78687838
471.112	16.67106154
471.313	16.61880274
471.514	16.57736435
471.715	16.53136811
471.915	16.45101889
472.116	16.3968043
472.317	16.35082021
472.517	16.20243295
472.718	16.12884732
472.919	15.96188399
473.119	15.79030828
473.32	15.74389266
473.521	15.62797705
473.721	15.59166009
473.922	15.48634467
474.122	15.34556173
474.323	15.27038738
474.523	15.12146279
474.724	14.9860425
474.925	14.89928083
475.125	14.72879319
475.326	14.68097952
475.526	14.5564235
475.727	14.42929731
475.927	14.33963123
476.127	14.1947046
476.328	14.07771568
476.528	13.99810962
476.729	13.92273511
476.929	13.79891624
477.13	13.69538082
477.33	13.61842421
477.53	13.53943466
477.731	13.42876931
477.931	13.31191134
478.131	13.2165432
478.332	13.13200719
478.532	13.10154636
478.732	13.0522539
478.933	12.96222837
479.133	12.88623424
479.333	12.81431982
479.533	12.73872471
479.734	12.69786999
479.934	12.64552965
480.134	12.5650927
480.334	12.50755395
480.534	12.45187342
480.735	12.40440284
480.935	12.31215489
481.135	12.24081025
481.335	12.19992788
481.535	12.14050325
481.735	12.06142892
481.935	12.02015841
482.136	11.95737318
482.336	11.91382397
482.536	11.88640304
482.736	11.80315753
482.936	11.75143718
483.136	11.72225996
483.336	11.67053529
483.536	11.63953227
483.736	11.59953725
483.936	11.54485598
484.136	11.50763102
484.336	11.46029081
484.536	11.43159817
484.736	11.40197735
484.936	11.35123009
485.135	11.34629284
485.335	11.33277617
485.535	11.29680443
485.735	11.26337481
485.935	11.23889074
486.135	11.22434247
486.335	11.19702486
486.534	11.17531286
486.734	11.13756414
486.934	11.10023899
487.134	11.07078576
487.334	11.04817075
487.533	11.0194755
487.733	10.98104529
487.933	10.93377756
488.133	10.89576838
488.332	10.85360153
488.532	10.8283049
488.732	10.80248316
488.931	10.75302867
489.131	10.69981849
489.331	10.64691454
489.53	10.60333584
489.73	10.56111653
489.93	10.54259569
490.129	10.51558325
490.329	10.43758646
490.528	10.39935176
490.728	10.34692116
490.928	10.30645277
491.127	10.26240103
491.327	10.23185845
491.526	10.20632222
491.726	10.1655774
491.925	10.13424295
492.125	10.13501648
492.324	10.08850381
492.524	10.04912543
492.723	10.03489683
492.922	9.98615803
493.122	9.96986146
493.321	9.95482093
493.521	9.93779459
493.72	9.91447648
493.919	9.87154405
494.119	9.82534254
494.318	9.77040727
494.517	9.77203801
494.717	9.76929959
494.916	9.75005433
495.115	9.72957372
495.315	9.71525967
495.514	9.70068149
495.713	9.62208114
495.912	9.60828157
496.112	9.58340226
496.311	9.52930348
496.51	9.52460478
496.709	9.52177499
496.908	9.48083994
497.108	9.47213966
497.307	9.45122992
497.506	9.46183183
497.705	9.41322737
497.904	9.38918514
498.103	9.39250491
498.302	9.35803497
498.501	9.35232449
498.701	9.35563114
498.9	9.29228813
499.099	9.2313749
499.298	9.20883388
499.497	9.19981636
499.696	9.10135521
499.895	9.04716241
500.094	9.00735537
500.293	8.99546217
500.492	8.88362158
500.691	8.9277924
500.89	8.91235661
501.088	8.91777282
501.287	8.87237838
501.486	8.83825196
501.685	8.82879131
501.884	8.78352213
502.083	8.77845297
502.282	8.70240238
502.481	8.69845653
502.679	8.63699503
502.878	8.56642832
503.077	8.66839275
503.276	8.7190221
503.475	8.6063265
503.673	8.56546805
503.872	8.60075864
504.071	8.68591566
504.27	8.67673232
504.468	8.63308675
504.667	8.70161329
504.866	8.60539123
505.064	8.5053414
505.263	8.36068677
505.462	8.36022452
505.66	8.39397578
505.859	8.36118417
506.058	8.3990768
506.256	8.39302411
506.455	8.2848213
506.653	8.3330097
506.852	8.40114267
507.05	8.41230882
507.249	8.3605163
507.448	8.3746673
507.646	8.41833041
507.845	8.4195253
508.043	8.31460334
508.242	8.2926454
508.44	8.28128808
508.638	8.12423316
508.837	8.14111016
509.035	8.18157917
509.234	8.17328427
509.432	8.13970255
509.631	8.08025538
509.829	7.94737281
510.027	7.89458319
510.226	7.93100214
510.424	7.93540951
510.622	8.0317304
510.821	7.99355558
511.019	7.84139164
511.217	7.79766651
511.415	7.62006284
511.614	7.47793081
511.812	7.42016273
512.01	7.52541535
512.208	7.65342632
512.407	7.69837548
512.605	7.78766157
512.803	7.94434219
513.001	7.84469348
513.199	7.74121433
513.398	7.82828969
513.596	8.01036411
513.794	8.02564978
513.992	7.9489907
514.19	7.83890479
514.388	7.94724229
514.586	7.8524915
514.784	7.86797973
514.982	7.66567465
515.18	7.77243038
515.378	7.80688514
515.576	7.80614813
515.774	7.75100309
515.972	7.85397182
516.17	7.77886535
516.368	7.69912348
516.566	7.69793909
516.764	7.60427336
516.962	7.57341019
517.16	7.67154546
517.358	7.60530853
517.556	7.5738509
517.754	7.49483994
517.952	7.48687087
518.149	7.63061441
518.347	7.49889756
518.545	7.17287121
518.743	7.13348743
518.941	6.99750478
519.138	7.19281198
519.336	7.23973584
519.534	7.12262577
519.732	7.04808107
519.929	6.92073436
520.127	6.76629903
520.325	6.60570832
520.523	6.75111566
520.72	6.640326
520.918	6.56829311
521.116	6.75377506
521.313	6.76194036
521.511	6.80056901
521.709	6.6899551
521.906	6.60910895
522.104	6.52264824
522.301	6.46388007
522.499	6.58605474
522.696	6.59379747
522.894	6.6764503
523.092	6.73979323
523.289	6.67134936
523.487	6.52633159
523.684	6.50936169
523.882	6.55312165
524.079	6.71365922
524.276	6.77067894
524.474	6.89387695
524.671	6.74028074
524.869	6.69912702
525.066	6.67621493
525.264	6.4119367
525.461	6.23526524
525.658	6.21360749
525.856	6.23596895
526.053	6.23817954
526.25	6.13444921
526.448	6.06893858
526.645	6.05948905
526.842	6.13989267
527.039	6.02277209
527.237	5.96332278
527.434	5.86669587
527.631	5.88629667
527.828	5.82903297
528.026	5.76941739
528.223	5.72543299
528.42	5.58804082
528.617	5.49256564
528.814	5.4648687
529.012	5.39508763
529.209	5.34616222
529.406	5.36463839
529.603	5.35890898
529.8	5.28424388
529.997	5.22552496
530.194	5.16955796
530.391	5.18751491
530.588	5.17262754
530.785	5.13227682
530.982	5.08466852
531.179	5.0492421
531.376	5.04372071
531.573	5.01817685
531.77	4.97009631
531.967	4.96463761
532.164	4.95117207
532.361	4.89988243
532.558	4.88579653
532.755	4.88360765
532.952	4.87158576
533.149	4.85683471
533.346	4.84676512
533.543	4.82905363
533.739	4.81629246
533.936	4.81331405
534.133	4.80911253
534.33	4.80684479
534.527	4.79750855
534.723	4.78956175
534.92	4.77473957
535.117	4.76564771
535.314	4.75783932
535.51	4.75204136
535.707	4.74391993
535.904	4.74067587
536.1	4.7402543
536.297	4.73202901
536.494	4.73851776
536.69	4.73884205
536.887	4.73699915
537.084	4.73113885
537.28	4.73238241
537.477	4.73071261
537.674	4.73149795
537.87	4.73521011
538.067	4.73125464
538.263	4.7299843
538.46	4.72696526
538.656	4.72526473
538.853	4.72120772
539.049	4.72392633
539.246	4.7216756
539.442	4.72285325
539.639	4.71954083
539.835	4.72327028
540.032	4.72533003
540.228	4.72332013
540.424	4.72298388
540.621	4.72227865
540.817	4.72128345
541.014	4.72079028
541.21	4.71988707
541.406	4.7200019
541.603	4.71895108
541.799	4.71578686
541.995	4.71315529
542.191	4.71279339
542.388	4.70935468
542.584	4.70934732
542.78	4.71086535
542.976	4.71173412
543.173	4.7107583
543.369	4.71324622
543.565	4.71415756
543.761	4.71337063
543.957	4.70494472
544.154	4.70363359
544.35	4.69791826
544.546	4.69831795
544.742	4.69364343
544.938	4.69124873
545.134	4.68663945
545.33	4.68590166
545.526	4.68087371
545.722	4.67849883
545.919	4.67548951
546.115	4.66940686
546.311	4.66747033
546.507	4.66606941
546.703	4.66007015
546.899	4.65711495
547.095	4.65223408
547.29	4.64700528
547.486	4.6426059
547.682	4.63900265
547.878	4.63849072
548.074	4.64042659
548.27	4.63684878
548.466	4.63949756
548.662	4.63428648
548.858	4.63288694
549.053	4.63096395
549.249	4.62914614
549.445	4.62302453
549.641	4.62740923
549.837	4.62886615
550.032	4.62907796
550.228	4.63242774
550.424	4.63012043
550.62	4.62639123
550.815	4.63150042
551.011	4.61900444
551.207	4.62613037
551.402	4.63294357
551.598	4.6402251
551.794	4.6363828
551.989	4.63337033
552.185	4.64002045
552.381	4.64132161
552.576	4.6340827
552.772	4.63637077
552.967	4.63729593
553.163	4.63624796
553.359	4.6435089
553.554	4.66994217
553.75	4.66762249
553.945	4.66224197
554.141	4.66586534
554.336	4.65883978
554.532	4.68055959
554.727	4.67167105
554.922	4.68196646
555.118	4.70224485
555.313	4.67697849
555.509	4.6727647
555.704	4.63617832
555.899	4.65643639
556.095	4.66887269
556.29	4.67199303
556.486	4.65747378
556.681	4.66130468
556.876	4.65406333
557.071	4.70284701
557.267	4.72388029
557.462	4.7131558
557.657	4.67838963
557.853	4.69562434
558.048	4.6862746
558.243	4.68312267
558.438	4.68688289
558.633	4.64181481
558.829	4.71306986
559.024	4.69735205
559.219	4.74650173
559.414	4.80121044
559.609	4.77899176
559.804	4.79988931
559.999	4.79700907
560.194	4.85283606
560.39	4.8509001
560.585	4.89271053
560.78	4.90795288
560.975	5.00063486
561.17	4.98308649
561.365	4.98866761
561.56	5.02096455
561.755	5.05194112
561.95	5.10509312
562.145	5.16868808
562.34	5.27165642
562.535	5.28042069
562.729	5.29750674
562.924	5.4078709
563.119	5.38159089
563.314	5.35237993
563.509	5.35641902
563.704	5.58542012
563.899	5.61278989
564.093	5.68704445
564.288	5.49434806
564.483	5.60570294
564.678	5.65223323
564.873	5.62773892
565.067	5.53309363
565.262	5.48637564
565.457	5.55144338
565.652	5.55851817
565.846	5.5088669
566.041	5.4006222
566.236	5.39788416
566.43	5.38147274
566.625	5.40696816
566.82	5.40649384
567.014	5.2786213
567.209	5.29068339
567.404	5.29927261
567.598	5.25444646
567.793	5.03597122
567.987	5.02738836
568.182	4.95979168
568.376	4.95394594
568.571	4.95662283
568.765	4.84643319
568.96	4.78801443
569.154	4.76758985
569.349	4.67703947
569.543	4.68050766
569.738	4.68454507
569.932	4.71774848
570.127	4.70161029
570.321	4.66349971
570.515	4.60902116
570.71	4.65532579
570.904	4.67776099
571.098	4.64281071
571.293	4.65081919
571.487	4.60425093
571.681	4.60331218
571.876	4.62374414
572.07	4.57002361
572.264	4.52740399
572.458	4.53137399
572.653	4.50660555
572.847	4.54201563
573.041	4.54863587
573.235	4.56265629
573.43	4.58129529
573.624	4.55437502
573.818	4.54710693
574.012	4.50596578
574.206	4.48985331
574.4	4.4945025
574.594	4.49328096
574.788	4.48875937
574.983	4.49247025
575.177	4.48939067
575.371	4.50909417
575.565	4.49643087
575.759	4.50062125
575.953	4.46689972
576.147	4.47753701
576.341	4.47212865
576.535	4.49455318
576.729	4.47999146
576.923	4.45438002
577.117	4.46989726
577.31	4.45632567
577.504	4.46866565
577.698	4.49023186
577.892	4.47621355
578.086	4.47362644
578.28	4.46887279
578.474	4.4532691
578.668	4.45573016
578.861	4.44866774
579.055	4.43906816
579.249	4.43529511
579.443	4.40553887
579.636	4.42105971
579.83	4.41616072
580.024	4.41270408
580.218	4.42078709
580.411	4.43504586
580.605	4.41680726
580.799	4.42499894
580.992	4.42293675
581.186	4.42914385
581.38	4.42245818
581.573	4.3893164
581.767	4.38568356
581.961	4.39077505
582.154	4.40507807
582.348	4.41206695
582.541	4.43014161
582.735	4.42421171
582.928	4.43533813
583.122	4.4392754
583.315	4.43566303
583.509	4.44666113
583.702	4.44431241
583.896	4.43567402
584.089	4.44932291
584.283	4.45035199
584.476	4.45032698
584.67	4.4564046
584.863	4.45793091
585.056	4.45880167
585.25	4.44881541
585.443	4.44635546
585.636	4.46339749
585.83	4.45386963
586.023	4.44873302
586.216	4.44030735
586.41	4.44469703
586.603	4.44297936
586.796	4.44594028
586.989	4.44491732
587.183	4.45008766
587.376	4.46994313
587.569	4.4805629
587.762	4.48135392
587.955	4.48603615
588.149	4.49247024
588.342	4.48987296
588.535	4.49224213
588.728	4.48266062
588.921	4.48416248
589.114	4.49631225
589.307	4.49656793
589.5	4.50953545
589.693	4.53319701
589.886	4.5333529
590.08	4.54328708
590.273	4.56426517
590.466	4.55460994
590.659	4.56733285
590.852	4.57167287
591.044	4.56942008
591.237	4.5479891
591.43	4.54872887
591.623	4.56312255
591.816	4.55371709
592.009	4.56316945
592.202	4.55734177
592.395	4.55093839
592.588	4.55587887
592.781	4.59147429
592.973	4.5924632
593.166	4.59011588
593.359	4.60337545
593.552	4.61875903
593.745	4.60558138
593.937	4.61758093
594.13	4.60184577
594.323	4.60474045
594.515	4.60777217
594.708	4.60732327
594.901	4.59277238
595.094	4.57831325
595.286	4.58123181
595.479	4.56403375
595.672	4.52534602
595.864	4.51904134
596.057	4.53652044
596.249	4.53600247
596.442	4.54947119
596.635	4.52064603
596.827	4.5027346
597.02	4.48946463
597.212	4.51481939
597.405	4.49579302
597.597	4.48667855
597.79	4.4905045
597.982	4.473415
598.175	4.47157342
598.367	4.47482975
598.559	4.47407464
598.752	4.44843374
598.944	4.47674225
599.137	4.489077
599.329	4.49180432
599.521	4.52225521
599.714	4.52026232
599.906	4.55593065
600.098	4.53068306
600.291	4.53808115
600.483	4.55832154
600.675	4.5648001
600.868	4.54254217
601.06	4.53967348
601.252	4.50980763
601.444	4.50582668
601.637	4.49098621
601.829	4.49152958
602.021	4.48928735
602.213	4.47467209
602.405	4.45019717
602.597	4.45467834
602.789	4.45253966
602.982	4.44655217
603.174	4.44273384
603.366	4.44081228
603.558	4.4283901
603.75	4.43669671
603.942	4.42642569
604.134	4.42536656
604.326	4.41840792
604.518	4.40212782
604.71	4.41112184
604.902	4.4114815
605.094	4.41077147
605.286	4.4134843
605.478	4.40569484
605.67	4.40860118
605.862	4.40641979
606.054	4.4031282
606.246	4.40507211
606.437	4.40351565
606.629	4.40266341
606.821	4.40470135
607.013	4.40708093
607.205	4.40450635
607.397	4.39899234
607.588	4.40236361
607.78	4.40029292
607.972	4.40157201
608.164	4.40635739
608.355	4.40373498
608.547	4.40833542
608.739	4.40124358
608.93	4.39871566
609.122	4.39716877
609.314	4.39313747
609.505	4.39886518
609.697	4.39338061
609.889	4.38722318
610.08	4.39105498
610.272	4.3981165
610.463	4.40102073
610.655	4.3996411
610.847	4.40382815
611.038	4.40022434
611.23	4.4031044
611.421	4.40657534
611.613	4.40038193
611.804	4.39855971
611.996	4.39942348
612.187	4.39733167
612.379	4.40269731
612.57	4.40273955
612.761	4.40446481
612.953	4.4153494
613.144	4.41949038
613.336	4.41928369
613.527	4.42006685
613.718	4.42462595
613.91	4.43608858
614.101	4.43239667
614.292	4.42889115
614.483	4.43624984
614.675	4.43591456
614.866	4.42958672
615.057	4.43170036
615.248	4.42592135
615.44	4.43399879
615.631	4.44169981
615.822	4.43974834
616.013	4.43629037
616.204	4.44154824
616.396	4.44293461
616.587	4.44864205
616.778	4.45032048
616.969	4.4547152
617.16	4.44593043
617.351	4.45249644
617.542	4.45314631
617.733	4.45250159
617.924	4.44249291
618.115	4.45077063
618.306	4.45842385
618.497	4.44906656
618.688	4.45412912
618.879	4.45517849
619.07	4.45917816
619.261	4.46329186
619.452	4.46157422
619.643	4.45171447
619.834	4.46133698
620.025	4.47569926
620.216	4.47859248
620.407	4.48600079
620.597	4.4936233
620.788	4.49027178
620.979	4.47900783
621.17	4.48109525
621.361	4.47919192
621.551	4.48368426
621.742	4.48852034
621.933	4.50010458
622.124	4.50368724
622.314	4.49105014
622.505	4.4951068
622.696	4.48402331
622.886	4.4884783
623.077	4.4795786
623.268	4.48912894
623.458	4.4935325
623.649	4.50309561
623.84	4.50602012
624.03	4.51130466
624.221	4.48946497
624.411	4.47386201
624.602	4.47195676
624.792	4.48869681
624.983	4.48111606
625.173	4.50103773
625.364	4.51023249
625.554	4.5109617
625.745	4.50209852
625.935	4.50300451
626.126	4.49121861
626.316	4.49106525
626.507	4.50544677
626.697	4.52043306
626.887	4.52032621
627.078	4.53622371
627.268	4.537374
627.458	4.52975657
627.649	4.539257
627.839	4.53536646
628.029	4.5329833
628.22	4.55305714
628.41	4.56627981
628.6	4.55579322
628.79	4.53979517
628.981	4.54022813
629.171	4.51969649
629.361	4.50399817
629.551	4.48048521
629.741	4.51483288
629.932	4.51169155
630.122	4.53391327
630.312	4.55205494
630.502	4.55514286
630.692	4.55521048
630.882	4.52701764
631.072	4.52693257
631.262	4.54012768
631.452	4.56648911
631.642	4.55547529
631.832	4.53463453
632.022	4.51665244
632.212	4.52963063
632.402	4.54287097
632.592	4.57576978
632.782	4.57600131
632.972	4.5911761
633.162	4.63758747
633.352	4.69598768
633.542	4.71963781
633.732	4.69989187
633.922	4.68819439
634.111	4.66594903
634.301	4.68216551
634.491	4.66567895
634.681	4.67675104
634.871	4.74468374
635.06	4.70287751
635.25	4.71619172
635.44	4.71075239
635.63	4.68376219
635.819	4.70416834
636.009	4.74859828
636.199	4.69940365
636.388	4.65121089
636.578	4.60641381
636.768	4.63938893
636.957	4.65726613
637.147	4.61672601
637.337	4.56190948
637.526	4.61876987
637.716	4.62892763
637.905	4.72399053
638.095	4.6809922
638.284	4.63325445
638.474	4.69706878
638.663	4.71140853
638.853	4.68493302
639.042	4.71205042
639.232	4.67018656
639.421	4.71849227
639.611	4.78070822
639.8	4.82216996
639.99	4.835504
640.179	4.88771466
640.368	4.99929274
640.558	4.98370805
640.747	5.05108272
640.936	5.07937817
641.126	5.01895739
641.315	4.97614394
641.504	4.97450207
641.694	5.0066033
641.883	4.92668479
642.072	5.00617687
642.261	5.00522214
642.451	4.93365195
642.64	4.8237031
642.829	4.86947963
643.018	5.07392105
643.207	5.08026576
643.397	4.97721405
643.586	4.99543519
643.775	5.0412442
643.964	5.01131612
644.153	4.96349721
644.342	4.85122551
644.531	4.8951049
644.72	4.8016261
644.909	4.74808954
645.098	4.81927857
645.287	4.87433386
645.476	4.81268194
645.665	4.79295232
645.854	4.80407833
646.043	4.78875033
646.232	4.93550256
646.421	4.89848764
646.61	5.02666724
646.799	5.06729686
646.988	4.96132652
647.177	4.93797242
647.365	4.96696141
647.554	4.96898074
647.743	4.95943563
647.932	4.91583552
648.121	4.96305389
648.309	5.03562489
648.498	5.10833099
648.687	5.15892582
648.876	5.15284958
649.064	5.16202883
649.253	5.09914387
649.442	5.10381219
649.63	5.08025049
649.819	5.0165764
650.008	4.99852198
650.196	4.90893228
650.385	4.92342639
650.574	4.81922122
650.762	4.75162064
650.951	4.75152128
651.139	4.82033452
651.328	4.93000771
651.516	4.93202997
651.705	4.92056388
651.893	5.01109918
652.082	5.03008713
652.27	5.04243869
652.459	4.98097942
652.647	4.92288714
652.836	4.99049696
653.024	4.95513752
653.213	4.98431431
653.401	5.03725537
653.589	5.08074962
653.778	5.14455319
653.966	5.17903045
654.154	5.2357563
654.343	5.21428257
654.531	5.26513126
654.719	5.31011896
654.908	5.20182126
655.096	5.18787207
655.284	5.11583659
655.472	5.13415811
655.661	5.14623283
655.849	5.01885173
656.037	4.98136727
656.225	4.92144986
656.413	4.91078035
656.601	4.96515286
656.79	4.87211273
656.978	4.88901123
657.166	4.89826298
657.354	4.91645403
657.542	4.87868222
657.73	4.97930434
657.918	5.00718994
658.106	4.95493312
658.294	4.95082686
658.482	4.94769156
658.67	4.84339983
658.858	4.94892393
659.046	4.8824178
659.234	4.88346918
659.422	4.97033642
659.61	4.88178486
659.798	4.95015881
659.986	4.99905713
660.173	5.05660354
660.361	4.95048263
660.549	4.9324882
660.737	5.02048804
660.925	5.09696103
661.113	5.06963825
661.3	5.06958267
661.488	5.11279416
661.676	4.98806151
661.864	4.96134162
662.051	4.92993338
662.239	5.02755495
662.427	5.04249253
662.614	5.09655407
662.802	5.06711309
662.99	5.03053678
663.177	5.00918599
663.365	4.89341129
663.553	5.02538117
663.74	4.9718724
663.928	4.88440169
664.115	4.94314053
664.303	4.97297887
664.49	4.98957778
664.678	5.04926415
664.866	4.94920205
665.053	5.04972968
665.24	4.99361353
665.428	4.88141459
665.615	4.8622447
665.803	4.82352067
665.99	4.86823442
666.178	4.93370393
666.365	5.04315189
666.552	5.03205428
666.74	5.01137949
666.927	5.22208947
667.114	5.08772491
667.302	5.1707519
667.489	5.06502709
667.676	5.19545346
667.864	5.15580862
668.051	5.11182037
668.238	5.15707449
668.425	5.10776674
668.613	4.99361621
668.8	5.18074775
668.987	5.1280311
669.174	5.10753133
669.361	5.33371888
669.548	5.30773779
669.736	5.31801625
669.923	5.20137823
670.11	5.14163075
670.297	5.12301929
670.484	5.08412666
670.671	5.31264139
670.858	5.25685103
671.045	5.31923435
671.232	5.24299974
671.419	5.19919469
671.606	5.23613558
671.793	5.48984986
671.98	5.43120079
672.167	5.54358504
672.354	5.52479211
672.541	5.58114501
672.728	5.55185474
672.915	5.63715274
673.101	5.75591598
673.288	5.72765024
673.475	5.8431634
673.662	5.93998775
673.849	6.11248823
674.035	6.12737086
674.222	6.08437998
674.409	6.03570886
674.596	5.73989961
674.783	5.6373225
674.969	5.72695348
675.156	5.88202384
675.343	6.16100744
675.529	6.05864107
675.716	5.97897522
675.903	5.90433926
676.089	5.92433935
676.276	5.78844585
676.462	5.83485468
676.649	5.60592517
676.836	5.52810596
677.022	5.43178846
677.209	5.43835279
677.395	5.39947186
677.582	5.42254491
677.768	5.36875795
677.955	5.35923654
678.141	5.2589648
678.328	5.41690802
678.514	5.66956223
678.701	5.77085747
678.887	5.82815092
679.073	5.63269624
679.26	5.44126298
679.446	5.38696861
679.632	5.27667423
679.819	5.44792835
680.005	5.29350426
680.191	5.45426366
680.378	5.34604108
680.564	5.33194098
680.75	5.35850663
680.936	5.37653573
681.123	5.18875719
681.309	5.19341977
681.495	5.07551157
681.681	5.07524445
681.867	5.00573543
682.054	5.02605056
682.24	4.99551576
682.426	4.90808954
682.612	4.69772398
682.798	4.54192197
682.984	4.56918004
683.17	4.48501333
683.356	4.37043514
683.542	4.49815771
683.728	4.46933205
683.914	4.6041551
684.1	4.62418997
684.286	4.61550648
684.472	4.68879272
684.658	4.6904193
684.844	4.65570504
685.03	4.68472629
685.216	4.94857789
685.402	4.9268196
685.588	4.92901221
685.774	5.04613495
685.96	5.09584377
686.145	5.14976783
686.331	5.04518762
686.517	5.19527809
686.703	5.28426898
686.889	5.39559608
687.074	5.54670165
687.26	5.76498728
687.446	5.76727417
687.631	5.6850501
687.817	5.67042402
688.003	5.50626886
688.189	5.49380599
688.374	5.4668778
688.56	5.42218824
688.745	5.49471275
688.931	5.54035409
689.117	5.23565003
689.302	5.33125187
689.488	5.44445778
689.673	5.25618458
689.859	5.20915873
690.044	5.01761667
690.23	5.23652793
690.415	5.2622831
690.601	5.4010134
690.786	5.25517416
690.972	5.18248983
691.157	5.12866545
691.343	4.93796227
691.528	5.10457363
691.713	4.8681016
691.899	5.02387304
692.084	5.19774346
692.269	5.25277584
692.455	5.23903725
692.64	5.56855824
692.825	5.81018316
693.011	6.05780058
693.196	6.11606251
693.381	5.90781248
693.566	5.8725789
693.752	6.12413039
693.937	6.2178738
694.122	5.92257576
694.307	5.82662016
694.492	5.66654185
694.678	5.71804896
694.863	5.74073996
695.048	5.93813637
695.233	6.13955215
695.418	6.07811417
695.603	6.61709646
695.788	6.53569713
695.973	6.57356
696.158	6.58855006
696.343	6.72827917
696.528	6.44136904
696.713	6.18668519
696.898	5.91987377
697.083	5.74773838
697.268	5.84959322
697.453	6.06294229
697.638	5.81197402
697.823	5.93619349
698.008	6.10216738
698.192	6.03137304
698.377	6.04215902
698.562	5.90440601
698.747	5.75710721
698.932	5.44514317
699.117	5.2309495
699.301	5.15667106
699.486	4.94541032
699.671	5.10154733
699.856	4.96633723
700.04	4.92768615
700.225	4.89662809
700.41	4.82676528
700.594	4.85664197
700.779	4.76606479
700.964	4.70318675
701.148	4.61051031
701.333	4.53494564
701.517	4.49387524
701.702	4.54878653
701.887	4.54258549
702.071	4.64987358
702.256	4.67945382
702.44	4.76612496
702.625	4.85418698
702.809	4.92452492
702.994	4.96213478
703.178	4.94402653
703.362	5.00469477
703.547	4.88133013
703.731	4.95010756
703.916	4.94691218
704.1	4.88826253
704.284	4.84087837
704.469	4.7769653
704.653	4.80877945
704.837	4.85865218
705.022	4.8426798
705.206	4.84743182
705.39	4.85875577
705.575	4.78821927
705.759	4.66169458
705.943	4.58713113
706.127	4.51095415
706.311	4.45681855
706.496	4.40190578
706.68	4.35560785
706.864	4.30718265
707.048	4.31855
707.232	4.25942241
707.416	4.31896149
707.6	4.27268643
707.785	4.3005121
707.969	4.30316217
708.153	4.35740423
708.337	4.38679616
708.521	4.34721884
708.705	4.32067576
708.889	4.38088865
709.073	4.32690162
709.257	4.28985124
709.441	4.27070017
709.624	4.34063077
709.808	4.37857008
709.992	4.4641287
710.176	4.55486163
710.36	4.57204692
710.544	4.7004746
710.728	4.69109248
710.912	4.70879859
711.095	4.76823622
711.279	4.65829371
711.463	4.63937506
711.647	4.6211022
711.83	4.63610382
712.014	4.54286264
712.198	4.54723238
712.382	4.63641976
712.565	4.68759539
712.749	4.61456475
712.933	4.69344164
713.116	4.77732512
713.3	4.75156294
713.483	4.84525888
713.667	4.85149741
713.851	4.79929068
714.034	4.64078431
714.218	4.57996598
714.401	4.32850025
714.585	4.44789748
714.768	4.3810973
714.952	4.4024909
715.135	4.56562286
715.319	4.58457172
715.502	4.74717798
715.686	4.89294822
715.869	4.94589198
716.052	5.13074823
716.236	4.9386979
716.419	4.95037985
716.602	4.91356106
716.786	5.11762121
716.969	5.17059687
717.152	5.47066145
717.336	5.65314145
717.519	5.56786234
717.702	5.37217108
717.885	5.44628773
718.069	5.70781956
718.252	6.2904144
718.435	6.94371148
718.618	6.74268857
718.801	6.49486296
718.985	7.04470781
719.168	7.00791521
719.351	5.87018604
719.534	5.60073048
719.717	5.87595071
719.9	5.35346325
720.083	6.13834109
720.266	5.87373019
720.449	6.71286921
720.632	6.05572329
720.815	6.04109169
720.998	5.63960121
721.181	5.72066772
721.364	5.04358113
721.547	6.08757438
721.73	6.4800043
721.913	5.83355874
722.096	5.14585743
722.279	4.67681243
722.461	5.56534971
722.644	6.15777578
722.827	5.50555751
723.01	6.80587637
723.193	8.48942317
723.376	9.16215152
723.558	9.90175558
723.741	10.6811586
723.924	10.21943102
724.107	11.69835643
724.289	10.41368383
724.472	11.37647126
724.655	12.66223309
724.837	12.94698376
725.02	12.19567561
725.203	12.81132751
725.385	12.0993033
725.568	11.7068677
725.75	12.77709067
725.933	12.5673555
726.115	12.30309149
726.298	11.85893122
726.481	12.61329159
726.663	11.8805504
726.845	12.49443164
727.028	11.87626516
727.21	11.38917763
727.393	10.96914128
727.575	9.30032937
727.758	8.53918444
727.94	7.68225711
728.122	8.1946833
728.305	8.98807897
728.487	7.11805921
728.67	7.09699152
728.852	7.02900555
729.034	6.23836326
729.216	5.87127293
729.399	6.3213061
729.581	5.66786927
729.763	6.72299234
729.945	6.40174728
730.128	5.69473168
730.31	3.47565317
730.492	5.1004438
730.674	3.2108602
730.856	3.36121868
731.039	4.42187871
731.221	4.65387965
731.403	6.92215468
731.585	5.96399179
731.767	6.17964622
731.949	6.06733335
732.131	4.87025386
732.313	5.70731609
732.495	4.77576346
732.677	4.91424869
732.859	5.81830555
733.041	6.48634611
733.223	5.05621355
733.405	5.13618208
733.587	5.52695366
733.769	5.99210051
733.951	7.6416518
734.132	9.10814838
734.314	8.13659441
734.496	6.03714269
734.678	5.95659241
734.86	4.91509596
735.042	3.89477475
735.223	2.89122408
735.405	4.46861925
735.587	3.8052654
735.769	3.893623
735.95	5.25712384
736.132	4.16432699
736.314	5.7961383
736.495	5.16208629
736.677	5.97155723
736.859	5.29980384
737.04	6.31306553
737.222	5.72072925
737.403	5.23252811
737.585	4.78047446
737.767	3.2105487
737.948	2.77107824
738.13	4.01125496
738.311	6.03703153
738.493	5.68009214
738.674	5.28988995
738.856	5.68418249
739.037	6.30208419
739.219	6.44315201
739.4	6.42379646
739.581	7.92945109
739.763	7.18790229
739.944	7.98822891
740.125	7.63262978
740.307	7.36862611
740.488	6.71931621
740.669	7.32925337
740.851	7.26748497
741.032	7.74579105
741.213	5.55434982
741.395	5.77414064
741.576	6.95707049
741.757	6.18558475
741.938	4.79396761
742.119	5.40950886
742.301	6.17242023
742.482	6.50646887
742.663	5.63915593
742.844	4.13707665
743.025	4.42415108
743.206	4.63312927
743.387	3.04865956
743.568	3.1847593
743.749	2.74954415
743.93	2.0324233
744.111	3.98880851
744.292	4.62801097
744.473	4.65735072
744.654	4.89236066
744.835	4.83054803
745.016	7.7748189
745.197	7.8147264
745.378	8.9477082
745.559	9.52034205
745.74	10.72655268
745.921	10.31574931
746.102	9.6692161
746.282	10.53240514
746.463	12.96923649
746.644	14.17023206
746.825	13.84850496
747.006	14.55794372
747.186	15.31308875
747.367	15.85313175
747.548	16.17231201
747.728	15.37718595
747.909	14.21018671
748.09	13.92838055
748.27	12.60316848
748.451	12.11669368
748.632	12.30071796
748.812	10.01649258
748.993	8.64070504
749.173	6.78169508
749.354	7.0007003
749.535	6.87673271
749.715	7.08322965
749.896	7.86890473
750.076	6.22112101
750.257	5.07925801
750.437	4.9064421
750.618	5.60273153
750.798	6.54682109
750.978	5.8020179
751.159	4.22596987
751.339	3.63936229
751.52	4.1616445
751.7	4.90889047
751.88	4.05046337
752.061	5.20345042
752.241	5.45517346
752.421	5.83971524
752.601	7.91538216
752.782	8.4383849
752.962	10.74865301
753.142	10.10820464
753.322	10.28107589
753.503	10.3926097
753.683	10.12607941
753.863	11.47547876
754.043	12.70508078
754.223	12.88567768
754.403	13.40275586
754.583	11.73773009
754.764	11.16953645
754.944	12.80881298
755.124	13.96453102
755.304	16.06192226
755.484	14.39371647
755.664	14.66885231
755.844	15.66215569
756.024	16.30150008
756.204	15.45821816
756.384	14.15177403
756.564	14.91437819
756.743	11.5506058
756.923	13.42535115
757.103	12.31831304
757.283	12.04199206
757.463	13.45095709
757.643	12.07964255
757.823	10.59498817
758.002	11.57916964
758.182	10.50378838
758.362	9.84379685
758.542	10.85757339
758.721	9.04504895
758.901	10.30276979
759.081	6.88428428
759.261	8.37841549
759.44	10.34349778
759.62	7.37160629
759.8	7.14907233
759.979	9.90310669
760.159	10.70059059
760.338	12.65193835
760.518	15.07751175
760.698	15.5733288
760.877	15.08129965
761.057	14.85413405
761.236	13.53231278
761.416	14.89263583
761.595	15.1820048
761.775	15.1729948
761.954	16.89980434
762.133	19.62825919
762.313	21.26762611
762.492	23.40747202
762.672	22.67083493
762.851	25.40492698
763.03	25.98832312
763.21	24.34227477
763.389	26.85007586
763.568	27.17772971
763.748	27.32917502
763.927	29.13161352
764.106	27.95701918
764.286	26.9446069
764.465	24.69574462
764.644	26.79197372
764.823	27.51220873
765.002	28.01138425
765.182	26.67129951
765.361	25.7516773
765.54	26.93757394
765.719	24.57661897
765.898	22.84280661
766.077	22.5171861
766.256	20.91949026
766.435	21.45411524
766.614	21.35092121
766.793	23.53617146
766.972	23.62835947
767.151	22.69229745
767.33	21.96931556
767.509	21.8068617
767.688	21.02323322
767.867	21.830624
768.046	23.39182839
768.225	23.07733634
768.404	22.89758092
768.583	21.17924154
768.762	20.24448496
768.94	22.34832062
769.119	24.49536836
769.298	22.65907517
769.477	24.80793443
769.656	26.64626777
769.834	26.40024928
770.013	27.9099002
770.192	27.51787957
770.37	28.05207503
770.549	25.74718082
770.728	25.77009767
770.906	27.03226663
771.085	27.05056406
771.264	26.40878571
771.442	25.2672985
771.621	24.77445488
771.799	23.99374652
771.978	25.72134985
772.157	25.93653066
772.335	27.1908684
772.514	28.85198438
772.692	28.71072001
772.871	27.74889274
773.049	28.06488222
773.228	27.2947325
773.406	26.76881356
773.584	29.02068892
773.763	28.50681214
773.941	28.97104263
774.119	29.62404366
774.298	30.10900283
774.476	30.33408541
774.655	29.81540386
774.833	30.88450393
775.011	29.99468725
775.189	30.43977165
775.368	31.24729132
775.546	30.80966785
775.724	29.86479053
775.902	30.56004704
776.08	30.09731996
776.259	29.82184814
776.437	29.19496216
776.615	29.63728397
776.793	29.96535623
776.971	30.06008904
777.149	30.05450707
777.327	28.68662466
777.505	28.53786489
777.683	27.1073018
777.861	26.6556773
778.04	29.56644644
778.218	28.84936076
778.395	27.55306236
778.573	26.59336382
778.751	26.92771674
778.929	28.28024239
779.107	28.51113946
779.285	29.80307474
779.463	29.63564632
779.641	27.27272727
779.819	27.87745596
779.997	27.92662481
780.174	29.72063722
780.352	30.47514838
780.53	30.54269674
780.708	31.15602581
780.886	31.11818152
781.063	31.18141975
781.241	33.18077803
781.419	34.52276494
781.596	34.78449861
781.774	30.86110241
781.952	31.42979666
782.129	32.3964016
782.307	30.86198529
782.485	32.38013889
782.662	31.06236887
782.84	31.19524526
783.017	31.33915517
783.195	33.84039409
783.372	35.42789962
783.55	37.19305414
783.727	37.53451758
783.905	37.80078937
784.082	36.37825388
784.26	37.54407892
784.437	38.61430828
784.615	39.08082698
784.792	42.30417409
784.969	38.1511262
785.147	39.9444865
785.324	42.06551638
785.501	42.44349239
785.679	45.61132433
785.856	46.74741358
786.033	51.1274871
786.211	51.2888533
786.388	49.78896668
786.565	48.79368772
786.742	48.4305158
786.92	49.84261314
787.097	52.67137349
787.274	54.01944144
787.451	55.76074273
787.628	52.13993686
787.805	54.28214861
787.982	52.11888291
788.16	53.02439278
788.337	55.57645092
788.514	52.43462808
788.691	56.56034703
788.868	52.53270885
789.045	48.86381527
789.222	49.27104222
789.399	48.44415682
789.576	49.17535837
789.753	49.28961749
789.93	48.01540436
790.106	46.85965889
790.283	49.67940753
790.46	48.44649022
790.637	46.82047021
790.814	45.44623356
790.991	41.02628791
791.168	44.12024757
791.344	45.40162386
791.521	44.21047104
791.698	45.35696861
791.875	42.5103389
792.051	38.98600447
792.228	38.64778685
792.405	38.93371302
792.581	40.8032934
792.758	42.89008858
792.935	42.93072367
793.111	41.4103025
793.288	41.8870736
793.465	41.26221454
793.641	42.25611359
793.818	46.72772778
793.994	43.90888973
794.171	46.34173607
794.347	48.21909951
794.524	44.5058318
794.7	48.11346736
794.877	41.7697431
795.053	44.11846265
795.23	44.75257121
795.406	45.50509731
795.583	47.10173172
795.759	46.67543715
795.935	45.23338048
796.112	42.82745483
796.288	44.51279103
796.464	44.87216483
796.641	45.09848701
796.817	46.68887039
796.993	46.50916588
797.169	45.52762742
797.346	47.52357825
797.522	50.78505389
797.698	51.06930797
797.874	49.82386277
798.051	48.01098078
798.227	49.44758286
798.403	49.96716343
798.579	53.98300452
798.755	51.46713921
798.931	49.74780303
799.107	52.7937445
799.283	51.2180237
799.459	53.82425808
799.635	56.7883522
799.811	57.489942
799.987	53.59116022
800.163	53.63233722
800.339	54.65479298
800.515	56.50426376
800.691	53.86946518
800.867	55.20508311
801.043	55.68763414
801.219	53.33074921
801.395	54.04366089
801.571	56.66489644
801.746	56.82931253
801.922	57.76747462
802.098	55.65774347
802.274	55.11138407
802.45	58.96575235
802.625	59.68992248
802.801	57.89779046
802.977	58.12752073
803.152	58.99960441
803.328	55.10289618
803.504	56.61107183
803.679	57.82896655
803.855	52.55252756
804.031	51.67555682
804.206	51.20966176
804.382	53.90902494
804.557	54.33148961
804.733	52.58040964
804.909	53.02152477
805.084	53.05362183
805.26	53.41424724
805.435	54.32623066
805.61	53.70363311
805.786	54.58246058
805.961	53.20168034
806.137	50.49291559
806.312	49.02949534
806.488	47.78837105
806.663	46.70707945
806.838	47.06677716
807.014	48.96646133
807.189	46.27545934
807.364	46.21083725
807.54	51.44274772
807.715	53.3856379
807.89	53.52281617
808.065	55.7576708
808.241	56.52127489
808.416	53.98287284
808.591	57.07942218
808.766	56.52927915
808.941	55.26045754
809.116	59.05749293
809.291	60.43815258
809.467	61.52964187
809.642	60.56727776
809.817	64.79291986
809.992	71.74891313
810.167	71.96020354
810.342	75.97735445
810.517	73.45854823
810.692	76.73224979
810.867	72.41698128
811.042	72.31567247
811.217	72.86972792
811.392	73.7755976
811.567	73.3269977
811.741	68.5022198
811.916	66.77992888
812.091	73.74705548
812.266	66.84144819
812.441	60.86621587
812.616	58.83867531
812.79	54.44128543
812.965	55.2784273
813.14	55.03785673
813.315	55.87753342
813.489	54.51332011
813.664	53.13620786
813.839	53.36234502
814.013	52.00664728
814.188	52.11293096
814.363	50.65467177
814.537	56.77854702
814.712	60.56767311
814.887	58.71193696
815.061	55.7424652
815.236	53.5594256
815.41	55.40294023
815.585	56.00382206
815.759	50.26935671
815.934	53.81316998
816.108	60.96967238
816.283	62.21093021
816.457	60.61799455
816.631	65.68447493
816.806	65.15411824
816.98	59.79391465
817.155	61.68811733
817.329	59.76772214
817.503	63.59023153
817.678	62.0303506
817.852	56.95569557
818.026	58.78642235
818.201	61.11386384
818.375	63.15840717
818.549	71.18820304
818.723	71.4046978
818.897	71.19560238
819.072	71.99889615
819.246	75.44814641
819.42	77.66210851
819.594	76.50852924
819.768	80.90031605
819.942	80.49425572
820.116	76.99587479
820.29	69.0942818
820.465	70.81703107
820.639	73.56921449
820.813	71.00081127
820.987	72.01572817
821.161	62.67331817
821.335	63.51282978
821.509	67.11423853
821.682	61.88389923
821.856	64.78005653
822.03	60.37776042
822.204	58.8735164
822.378	57.53240314
822.552	57.99928032
822.726	55.74591652
822.9	50.59647118
823.073	47.76391625
823.247	40.22536489
823.421	40.32102966
823.595	40.19658562
823.768	42.78787879
823.942	42.09504516
824.116	44.85476823
824.289	46.07884697
824.463	48.18467055
824.637	47.58695066
824.81	49.56096678
824.984	49.97629658
825.158	53.51624684
825.331	56.09886678
825.505	45.73686657
825.678	43.36938517
825.852	45.78505368
826.025	53.68601781
826.199	56.86402791
826.372	54.73936352
826.546	60.4920229
826.719	60.32212706
826.893	74.93828612
827.066	75.73520364
827.24	69.99609324
827.413	63.91445237
827.586	63.327516
827.76	65.98240469
827.933	65.25163037
828.106	60.98041631
828.28	64.06787706
828.453	71.7482854
828.626	67.75044991
828.799	60.36214808
828.973	62.15581365
829.146	66.77940624
829.319	65.61604585
829.492	59.77025541
829.665	51.87101432
829.839	51.68713485
830.012	55.44719051
830.185	53.25852885
830.358	57.51963427
830.531	49.73044207
830.704	45.82876629
830.877	55.65021891
831.05	65.9421106
831.223	73.07537283
831.396	65.19025327
831.569	64.05585914
831.742	64.34090647
831.915	58.3284833
832.088	56.63658951
832.261	55.80691832
832.434	63.24406651
832.607	72.65378819
832.779	79.91679816
832.952	87.41958542
833.125	85.56390977
833.298	78.5723573
833.471	76.6264741
833.643	68.04028091
833.816	65.10343055
833.989	63.57767317
834.162	65.60599632
834.334	59.84181656
834.507	51.94525409
834.68	47.20933
834.852	47.6413478
835.025	47.43096819
835.198	50.7092636
835.37	53.83170044
835.543	59.29273084
835.715	63.79971513
835.888	69.17586707
836.061	74.28128355
836.233	68.6551359
836.406	60.43403769
836.578	60.02294894
836.751	57.58892829
836.923	63.12974251
837.095	68.43053946
837.268	79.55566971
837.44	83.33128457
837.613	89.67833157
837.785	88.12447836
837.957	96.05070047
838.13	99.66624948
838.302	99.33026371
838.474	102.87562904
838.647	98.62172285
838.819	103.57629944
838.991	99.44559945
839.163	105.42817033
839.336	115.98787649
839.508	115.54345786
839.68	104.17353103
839.852	104.33036494
840.024	106.0615831
840.196	102.99410734
840.368	103.38932659
840.541	104.73811902
840.713	93.7908916
840.885	96.44760213
841.057	92.82900991
841.229	83.36786849
841.401	85.29688973
841.573	89.43271612
841.745	93.50571257
841.917	94.93984869
842.089	90.33887862
842.261	92.17200978
842.432	89.05274346
842.604	84.28590198
842.776	80.9596929
842.948	82.99142111
843.12	74.85234283
843.292	79.12283099
843.464	71.57113958
843.635	75.99671188
843.807	79.83285382
843.979	83.71424247
844.151	85.61633399
844.322	89.16089299
844.494	86.59030591
844.666	86.32042004
844.837	92.46078819
845.009	97.58606501
845.181	90.50238888
845.352	87.37958956
845.524	88.11138364
845.695	83.85625432
845.867	84.99255045
846.039	86.03281447
846.21	91.74176634
846.382	93.56400399
846.553	87.61609907
846.725	95.07788978
846.896	96.76692726
847.068	101.2056087
847.239	92.91591131
847.41	85.18518519
847.582	80.17523212
847.753	84.55209025
847.925	82.18117615
848.096	75.58523625
848.267	78.77984085
848.439	78.13308969
848.61	73.32571755
848.781	74.23330888
848.952	73.01299064
849.124	78.14634146
849.295	87.65179225
849.466	90.07335727
849.637	89.99222999
849.808	85.85549213
849.98	87.11331944
850.151	96.19293434
850.322	95.56605488
850.493	86.16453855
850.664	89.64853995
850.835	108.7357243
851.006	110.88055798
851.177	118.17228726
851.348	108.57890148
851.519	116.93340217
851.69	135.0466435
851.861	135.15954244
852.032	117.34124843
852.203	117.70770164
852.374	129.9978573
852.545	142.22393031
852.716	127.29790985
852.887	123.77456784
853.057	116.94693164
853.228	114.24211597
853.399	116.6271807
853.57	107.53758205
853.741	100.50515681
853.911	94.3051935
854.082	101.7214043
854.253	88.16744186
854.424	80.03992016
854.594	86.71929417
854.765	86.29745932
854.936	118.84287069
855.106	91.90720259
855.277	79.81072555
855.447	83.8452237
855.618	90.98211972
855.789	94.54982634
855.959	75.85301837
856.13	77.87872803
856.3	62.36663434
856.471	54.89614243
856.641	54.35061367
856.812	48.20197503
856.982	57.24429092
857.153	56.79906085
857.323	56.73693859
857.493	60.85532653
857.664	63.96186028
857.834	57.66043097
858.004	56.97844737
858.175	57.28970002
858.345	60.14963576
858.515	47.99656062
858.686	41.11461619
858.856	40.93646785
859.026	46.81974742
859.196	47.69551616
859.367	50.860379
859.537	42.47919778
859.707	57.74446824
859.877	85.73837629
860.047	95.12492383
860.217	90.65522906
860.387	85.82207405
860.558	75.27773431
860.728	75.98207618
860.898	67.66976524
861.068	66.51471198
861.238	64.65189459
861.408	68.62745098
861.578	74.29292259
861.748	61.40047012
861.918	60.70175439
862.088	55.77623304
862.257	56.38286155
862.427	54.26835882
862.597	51.40063715
862.767	48.6819776
862.937	54.00358688
863.107	62.07089344
863.277	54.53243749
863.446	48.35647324
863.616	45.45691566
863.786	41.13486083
863.956	39.25345151
864.125	36.79541674
864.295	31.65093431
864.465	30.87770996
864.634	35.01429685
864.804	21.64626205
864.974	28.20512821
865.143	28.14691152
865.313	49.22834646
865.482	40.81300813
865.652	53.56447215
865.822	67.65855125
865.991	90.15630196
866.161	83.40026774
866.33	88.63572433
866.5	86.33573525
866.669	89.63672205
866.838	79.7344893
867.008	76.93239641
867.177	69.19229807
867.347	79.62466488
867.516	75.72535991
867.685	78.98782832
867.855	85.35645472
868.024	79.05720142
868.193	67.40270056
868.363	65.54931836
868.532	57.83987259
868.701	51.7982519
868.87	44.35113294
869.04	52.38551141
869.209	49.05460596
869.378	45.26974199
869.547	36.2077256
869.716	34.38093594
869.885	33.58302122
870.055	4.55991516
870.224	6.0104712
870.393	0.06746121
870.562	10.62622736
870.731	15.37950874
870.9	12.86129971
871.069	16.50358774
871.238	11.9449062
871.407	10.06882488
871.576	35.23723859
871.745	46.78251425
871.914	38.30634457
872.083	31.91958138
872.251	41.07277764
872.42	61.42762137
872.589	53.8573156
872.758	69.48868399
872.927	81.11975898
873.096	74.89414695
873.264	78.92572603
873.433	76.60033565
873.602	91.17444266
873.771	93.43982961
873.939	96.28459967
874.108	93.00779023
874.277	87.69351362
874.445	96.58686893
874.614	106.7001675
874.783	110.5239885
874.951	110.26884981
875.12	111.73620458
875.288	102.23701731
875.457	120.61043649
875.625	132.18776194
875.794	135.03744709
875.962	136.14022407
876.131	155.41561713
876.299	123.15726649
876.468	141.28349322
876.636	137.78110945
876.805	123.49520209
876.973	140.28333847
877.141	147.62221483
877.31	136.24868282
877.478	210.54198928
877.647	255.34545455
877.815	230.90909091
877.983	221.08218479
878.151	210.5917454
878.32	210.28993746
878.488	204.63378176
878.656	188.73822976
878.824	172.61453669
878.992	213.48362399
879.161	208.92636775
879.329	192.59908804
879.497	194.36568521
879.665	197.8343949
879.833	195.24655709
880.001	256.2149158
880.169	441.511772
880.337	266.77115987
880.505	299.54648526
880.673	197.16209716
880.841	177.33227471
881.009	152.89134438
881.177	159.0507365
881.345	163.17095873
881.513	138.17812591
881.681	126.63985926
881.849	132.39686155
882.017	136.39371381
882.185	134.51078462
882.352	133.49039507
882.52	117.18879956
882.688	123.73205742
882.856	107.26853187
883.024	120.85786375
883.191	118.1278662
883.359	132.2050608
883.527	128.87040515
883.694	118.36165356
883.862	121.82667056
884.03	110.92115336
884.197	133.4225394
884.365	157.84953624
884.533	160.40922377
884.7	126.45539097
884.868	120.32332564
885.035	153.16023232
885.203	150.55010407
885.37	150.75949367
885.538	139.72557988
885.705	135.06574828
885.873	145.49116827
886.04	142.54278729
886.208	136.37553157
886.375	180.17777778
886.542	174.66948704
886.71	156.71936759
886.877	159.79288609
