Data from green_paint_Reflection_001.txt Node
Date: Tue Nov 21 14:23:42 AEST 2023
User: uqkchene_local
Spectrometer: USB4E02642
Trigger mode: 4
Integration Time (sec): 7.600000E-2
Scans to average: 10
Electric dark correction enabled: true
Nonlinearity correction enabled: false
Boxcar width: 10
XAxis mode: Wavelengths
Number of Pixels in Spectrum: 3648
>>>>>Begin Spectral Data<<<<<
179.217	171.80076628
179.432	158.17307692
179.647	193.97963701
179.862	121.9047619
180.077	460.74074074
180.293	171.14427861
180.508	397.30250482
180.723	-18.30065359
180.938	-2173.33333335
181.153	-368.8172043
181.368	-1941.93548387
181.583	-291.33858268
181.798	524.83221477
182.013	-142.11663067
182.228	2.50447227
182.443	55.85421412
182.658	60.31502113
182.873	40.82179544
183.088	19.89855638
183.303	42.37053448
183.518	23.75255325
183.733	29.92874109
183.948	47.65113232
184.162	50.48698707
184.377	48.49829856
184.592	45.59530166
184.807	43.13209409
185.022	48.27116335
185.237	45.60545169
185.452	47.21130042
185.667	51.30704475
185.882	56.45960096
186.096	59.47577878
186.311	58.43132188
186.526	62.99493081
186.741	55.42790758
186.956	51.88094878
187.17	58.88033801
187.385	64.65835958
187.6	72.95825771
187.815	76.60020986
188.03	86.16852146
188.244	87.79023851
188.459	79.45816733
188.674	89.52810679
188.889	96.80829437
189.103	89.0481747
189.318	95.22977459
189.533	87.48099341
189.747	85.50026752
189.962	85.32091517
190.177	98.36286163
190.391	98.22173436
190.606	95.08478214
190.821	90.88151659
191.035	82.06551916
191.25	87.75230257
191.465	86.06763285
191.679	67.51541675
191.894	66.66666667
192.109	64.73836445
192.323	80.57068742
192.538	83.95763369
192.752	73.95903669
192.967	84.31226766
193.181	80.88729554
193.396	61.74166107
193.611	58.5665529
193.825	51.23899242
194.04	55.19585047
194.254	55.24440762
194.469	52.6784295
194.683	49.38376541
194.898	38.40628811
195.112	36.6072662
195.327	37.98132066
195.541	37.81499925
195.756	34.22632118
195.97	47.98086394
196.184	58.35992785
196.399	57.94018271
196.613	58.44675741
196.828	53.31923393
197.042	54.76937377
197.257	58.17080557
197.471	48.51103585
197.685	50.00598444
197.9	51.4552893
198.114	48.43407656
198.328	53.11545104
198.543	63.73760488
198.757	67.36078246
198.971	75.55985178
199.186	74.93379031
199.4	93.89274234
199.614	87.56609244
199.829	85.20654716
200.043	92.19470538
200.257	111.9476917
200.471	95.64567371
200.686	96.00827301
200.9	87.10296312
201.114	82.70818589
201.328	58.03271342
201.543	61.60379715
201.757	59.9188092
201.971	77.24425887
202.185	70.16037949
202.399	86.22877021
202.614	93.65240316
202.828	94.57293336
203.042	77.20602622
203.256	67.15582159
203.47	61.05653383
203.684	69.33390083
203.899	62.73892512
204.113	65.51506214
204.327	65.75194078
204.541	73.3098722
204.755	68.06707205
204.969	75.27839644
205.183	74.86531674
205.397	88.53862619
205.611	100.46530447
205.825	112.86153846
206.039	98.46582985
206.253	99.69062784
206.467	96.64142885
206.681	92.53003657
206.895	86.60314991
207.109	77.04386414
207.323	74.63407273
207.537	76.47721784
207.751	68.56020547
207.965	69.99843823
208.179	59.8035146
208.393	66.23901827
208.607	70.76447876
208.821	66.90777577
209.035	66.73370203
209.249	66.0769571
209.463	61.57870442
209.677	62.00089726
209.891	57.45840082
210.104	42.00240932
210.318	43.09188905
210.532	44.62945271
210.746	41.01730001
210.96	44.46225357
211.174	35.02899751
211.387	30.90529024
211.601	34.00772201
211.815	39.0438247
212.029	35.62383927
212.243	39.98536675
212.456	43.32241944
212.67	41.08749761
212.884	33.75602786
213.098	34.06613047
213.311	37.98067442
213.525	41.61600314
213.739	38.66095121
213.953	39.13630229
214.166	39.41823606
214.38	39.80779893
214.594	54.61351301
214.807	46.37497358
215.021	55.26366251
215.235	55.67611336
215.448	51.96155664
215.662	57.79961397
215.876	60.71238703
216.089	68.0300984
216.303	61.35458167
216.516	72.62919784
216.73	76.98701299
216.944	79.11309857
217.157	91.7884131
217.371	83.78070604
217.584	82.12134567
217.798	76.54537484
218.011	72.64322734
218.225	70.32011593
218.439	72.72009475
218.652	72.32853751
218.866	74.18191532
219.079	74.32009024
219.293	74.81473036
219.506	74.46239684
219.719	74.84723781
219.933	74.70153496
220.146	70.64737868
220.36	72.82862065
220.573	71.72259961
220.787	73.27074566
221	57.8680203
221.214	64.98493135
221.427	66.05874245
221.64	61.43454487
221.854	60.76415196
222.067	59.95693075
222.28	56.59259259
222.494	50.7081248
222.707	44.76106418
222.92	46.15011519
223.134	40.9693298
223.347	38.70879497
223.56	27.66426577
223.774	28.96927501
223.987	20.8869814
224.2	19.04313725
224.414	11.14058355
224.627	21.85123354
224.84	19.20994586
225.053	-0.49830125
225.267	-0.66160732
225.48	8.5410628
225.693	8.84754129
225.906	-4.45936226
226.119	-6.71808908
226.333	5.900888
226.546	-14.52513966
226.759	-1.66332091
226.972	-18.45065895
227.185	-8.93098782
227.398	-29.51554187
227.612	2.77559571
227.825	15.91310937
228.038	25.06037027
228.251	21.20974077
228.464	23.20254507
228.677	18.19724284
228.89	21.75214528
229.103	7.10084949
229.316	-0.36474164
229.529	22.81481481
229.743	24.19092388
229.956	29.90829122
230.169	22.67754819
230.382	21.05417707
230.595	19.55282771
230.808	29.26049688
231.021	38.94831808
231.234	41.32072448
231.447	50.21334699
231.66	57.25845606
231.872	71.77203918
232.085	66.33750661
232.298	48.9682097
232.511	49.25773565
232.724	49.38946601
232.937	50.99041534
233.15	61.52799819
233.363	60.48854193
233.576	61.61185036
233.789	72.99102003
234.002	93.1910888
234.214	80.43035766
234.427	83.94366197
234.64	88.19955229
234.853	100.65903573
235.066	86.74955595
235.279	64.38949783
235.491	40.76130056
235.704	46.06547961
235.917	41.40300127
236.13	39.25857275
236.342	41.35139891
236.555	36.67930553
236.768	51.72470705
236.981	41.4955767
237.193	42.85962172
237.406	43.881087
237.619	40.27705628
237.832	44.59047924
238.044	52.71914959
238.257	45.75771677
238.47	34.02700556
238.682	32.37490071
238.895	27.91684345
239.108	27.50108901
239.32	33.01872196
239.533	36.00480522
239.746	24.55841668
239.958	31.83063512
240.171	14.1132278
240.383	38.54324734
240.596	56.58976399
240.808	50.95435685
241.021	37.2554579
241.234	15.71369807
241.446	29.66507177
241.659	47.48524867
241.871	52.51932818
242.084	45.93599547
242.296	48.42600765
242.509	40.67304903
242.721	70.07955725
242.934	59.65981214
243.146	65.57944156
243.359	89.31774939
243.571	90.12875536
243.784	61.99240432
243.996	70.36751478
244.208	72.01093145
244.421	74.49625792
244.633	86.95816771
244.846	81.66454661
245.058	70.53180396
245.27	65.01442879
245.483	59.12915129
245.695	58.07517555
245.907	65.88482935
246.12	48.99445764
246.332	53.14929399
246.544	68.6511045
246.757	71.29118714
246.969	63.3348478
247.181	51.84546891
247.394	65.40718477
247.606	65.22846442
247.818	50.96977898
248.03	48.74818285
248.243	52.35707121
248.455	49.39615129
248.667	44.3956044
248.879	39.5842356
249.092	39.15710017
249.304	21.0572817
249.516	22.42484684
249.728	14.05517959
249.94	17.76087316
250.153	14.54086235
250.365	11.54362416
250.577	25.92097729
250.789	22.19657626
251.001	11.84045788
251.213	9.10876942
251.425	17.76029807
251.637	9.74236848
251.85	-7.08159226
252.062	-8.05635043
252.274	-1.47545154
252.486	-2.68142158
252.698	-14.16853095
252.91	-14.69409565
253.122	-33.35976738
253.334	-28.42425661
253.546	-16.66978835
253.758	2.38344135
253.97	15.87427889
254.182	18.16243114
254.394	30.27046391
254.606	23.9523058
254.818	29.13719943
255.03	29.60242695
255.242	40
255.454	32.81795511
255.666	33.74890255
255.877	28.83445668
256.089	43.08294445
256.301	40.31164334
256.513	48.17868386
256.725	43.19157778
256.937	58.68595168
257.149	63.44556847
257.361	62.74099537
257.572	79.71223022
257.784	85.75984691
257.996	87.90486622
258.208	80.46815625
258.42	77.06054537
258.631	78.62516595
258.843	73.81779725
259.055	72.62636868
259.267	64.20393833
259.479	64.17842513
259.69	57.94454591
259.902	63.36939722
260.114	60.21606388
260.325	57.85237198
260.537	48.76447209
260.749	48.52521408
260.961	46.43161301
261.172	44.40988422
261.384	31.4070754
261.596	27.24970454
261.807	20.62511698
262.019	18.46211694
262.23	22.6326272
262.442	15.50870761
262.654	-5.26638089
262.865	-6.11943448
263.077	-14.44826674
263.288	-32.71623672
263.5	-2.46654421
263.712	7.83995675
263.923	20.05023978
264.135	27.84910132
264.346	17.96549673
264.558	13.33851837
264.769	23.90604281
264.981	22.61010757
265.192	31.10924016
265.404	27.97116375
265.615	33.35163829
265.827	30.04347126
266.038	29.14660832
266.25	26.88339223
266.461	27.09878954
266.673	20.51489419
266.884	20.13086454
267.095	28.52353681
267.307	25.13517078
267.518	19.93898719
267.73	29.5392633
267.941	21.91950464
268.152	18.48301976
268.364	6.73320027
268.575	1.78785857
268.786	14.20630019
268.998	19.06873614
269.209	15.70706448
269.42	17.04364837
269.632	17.95268101
269.843	24.27665706
270.054	27.01003506
270.265	35.42408248
270.477	36.95566889
270.688	39.27057917
270.899	33.75651477
271.11	32.47684883
271.322	30.61786698
271.533	40.14236685
271.744	46.23155656
271.955	50.2558429
272.166	45.18280949
272.378	50.64094428
272.589	55.34335636
272.8	63.40022159
273.011	66.17880229
273.222	58.79415803
273.433	54.81133307
273.644	54.91183879
273.856	65.67290114
274.067	60.36611324
274.278	47.9506251
274.489	40.58679707
274.7	37.49779113
274.911	46.15384615
275.122	45.63414266
275.333	48.3307288
275.544	50.96334927
275.755	49.83155119
275.966	43.53992342
276.177	41.33659801
276.388	35.21501611
276.599	39.25030558
276.81	41.34144532
277.021	38.55034342
277.232	31.60486229
277.443	22.36705673
277.654	20.32870592
277.865	9.26775265
278.076	7.40740741
278.287	-7.60853349
278.497	-1.72554127
278.708	8.15752461
278.919	14.31856508
279.13	22.29777589
279.341	11.55373383
279.552	8.80054832
279.763	3.65123412
279.973	7.47520976
280.184	17.71793055
280.395	15.2073085
280.606	11.30555206
280.817	15.69760141
281.027	11.40451588
281.238	0.12640627
281.449	3.17539692
281.66	3.09538092
281.87	3.42802349
282.081	14.29730043
282.292	22.68402056
282.503	25.87661348
282.713	30.28497667
282.924	29.81307524
283.135	30.1818528
283.345	35.13291313
283.556	30.39507834
283.767	32.87332255
283.977	31.57691192
284.188	37.91277558
284.399	31.95658173
284.609	29.41346432
284.82	27.93424974
285.03	28.6645659
285.241	29.80043429
285.451	27.6754709
285.662	38.93374842
285.873	37.14716223
286.083	41.49154004
286.294	44.73267953
286.504	37.5630162
286.715	34.31495168
286.925	26.43803964
287.136	32.07708257
287.346	32.25806452
287.557	30.63021846
287.767	22.87278353
287.978	25.82254425
288.188	29.46020128
288.399	28.27613621
288.609	26.58860488
288.819	36.65073157
289.03	33.27177156
289.24	42.33615933
289.451	44.89699823
289.661	45.36508322
289.871	52.31585932
290.082	41.92332684
290.292	44.24123162
290.502	43.28060926
290.713	42.84448943
290.923	45.55102041
291.133	50.29632115
291.344	53.0518057
291.554	47.30994882
291.764	40.49490914
291.974	34.81600793
292.185	36.82293503
292.395	35.93732129
292.605	34.96370344
292.815	37.24781341
293.026	34.3455719
293.236	33.41667573
293.446	34.85042486
293.656	33.70893132
293.866	29.66405524
294.077	33.29283111
294.287	34.11388356
294.497	35.94148436
294.707	32.37651173
294.917	30.98362874
295.127	35.82420288
295.337	36.46262117
295.548	26.55590358
295.758	29.81704944
295.968	38.17792878
296.178	48.83811502
296.388	62.13403635
296.598	68.48935802
296.808	70.94502054
297.018	66.72048436
297.228	61.73929031
297.438	68.23529412
297.648	67.09341868
297.858	79.19153032
298.068	57.21848911
298.278	63.33771353
298.488	50.04707211
298.698	39.17169974
298.908	44.60300592
299.118	38.18580834
299.328	45.34042239
299.538	47.14924039
299.748	41.39834407
299.957	44.66088188
300.167	45.6359535
300.377	35.6479135
300.587	29.67617206
300.797	15.71501619
301.007	20.46890355
301.217	14.94364825
301.426	20.85436415
301.636	28.8811273
301.846	19.55566713
302.056	20.30012998
302.266	11.20184014
302.475	23.58458195
302.685	18.04047102
302.895	28.57752641
303.105	24.48537378
303.314	21.44678567
303.524	21.05412701
303.734	25.03132396
303.944	26.51107906
304.153	31.10347367
304.363	36.91724574
304.573	37.99667817
304.782	43.28863266
304.992	41.82785928
305.202	46.25765338
305.411	46.8912262
305.621	54.97574252
305.831	58.07968648
306.04	59.07827359
306.25	61.97635382
306.459	65.17185426
306.669	65.48459805
306.878	65.7807309
307.088	73.09302012
307.298	68.12437882
307.507	74.25446022
307.717	72.13571338
307.926	73.93486635
308.136	68.12360475
308.345	60.97532452
308.555	61.00454596
308.764	61.56009953
308.974	64.6400377
309.183	59.76983646
309.392	57.17981889
309.602	61.7233093
309.811	57.54599842
310.021	50.99591736
310.23	51.31798465
310.44	43.59861592
310.649	45.124956
310.858	35.07633129
311.068	38.75046486
311.277	34.71456062
311.486	27.99422799
311.696	23.47245846
311.905	17.17376606
312.114	13.14841979
312.324	12.74082408
312.533	1.81477747
312.742	8.16021521
312.952	5.5058741
313.161	-2.67901439
313.37	-1.97718631
313.579	2.98777727
313.789	1.68324407
313.998	-11.08162947
314.207	-2.65500547
314.416	-8.63140218
314.625	-13.36808788
314.835	-10.76053256
315.044	-13.25750844
315.253	4.94514492
315.462	2.70571383
315.671	-1.21044441
315.88	-14.74743565
316.09	-6.82523268
316.299	-4.06921468
316.508	8.61127956
316.717	7.59379915
316.926	32.75827075
317.135	26.60908904
317.344	22.55019736
317.553	33.16755274
317.762	40.21906555
317.971	48.39445517
318.18	53.25196164
318.389	62.77474943
318.598	47.08777687
318.807	48.30221961
319.016	44.47552448
319.225	45.95758252
319.434	50.06890216
319.643	46.04156751
319.852	44.86718081
320.061	43.51589812
320.27	56.85222859
320.479	60.10477854
320.688	72.76476101
320.897	65.16066212
321.105	60.52216576
321.314	55.82739357
321.523	52.46831852
321.732	58.05847953
321.941	50.09949149
322.15	30.6127277
322.359	22.42409754
322.567	14.64609356
322.776	12.60678827
322.985	23.18214543
323.194	20.53302433
323.403	32.49844753
323.611	36.7397092
323.82	40.33850494
324.029	41.0502188
324.237	42.43877376
324.446	46.01277223
324.655	45.79927643
324.864	41.35751123
325.072	35.0635431
325.281	42.71874519
325.49	47.35722468
325.698	42.39041208
325.907	32.82560329
326.116	32.50654753
326.324	33.26274638
326.533	34.57521434
326.741	27.56523131
326.95	25.63939635
327.159	25.35033853
327.367	24.62233027
327.576	28.86992861
327.784	24.58447489
327.993	22.4934612
328.201	12.38999137
328.41	20.8709422
328.618	22.95891377
328.827	18.60860691
329.035	1.55804674
329.244	15.89382271
329.452	31.62805162
329.661	22.36945891
329.869	25.9867959
330.078	20.58121578
330.286	35.78778565
330.495	38.08869971
330.703	39.21838448
330.911	45.67541302
331.12	43.38896021
331.328	49.6084937
331.537	44.47839978
331.745	47.25228391
331.953	49.22313618
332.162	47.95065113
332.37	49.17657167
332.578	53.72258695
332.787	48.1646754
332.995	45.41696365
333.203	42.45239201
333.411	50.62394084
333.62	32.47980753
333.828	17.55205293
334.036	17.90092359
334.244	7.64355675
334.453	19.81004071
334.661	11.09123435
334.869	15.50881666
335.077	20.32644178
335.285	5.06646601
335.494	23.68240931
335.702	31.46693691
335.91	46.21870883
336.118	33.23794849
336.326	48.92750475
336.534	46.33976296
336.742	51.58162087
336.951	50.23281293
337.159	59.7373568
337.367	49.32283465
337.575	72.33099372
337.783	86.92108188
337.991	114.4766147
338.199	96.06660924
338.407	145.2425724
338.615	134.45842283
338.823	143.5819994
339.031	142.689747
339.239	126.25269719
339.447	119.80558931
339.655	116.67674934
339.863	123.21770589
340.071	110.98976109
340.279	111.33791879
340.487	121.13800849
340.695	93.04771178
340.903	93.00233855
341.11	85.40643321
341.318	90.05320006
341.526	90.5092201
341.734	94.25442291
341.942	84.04369903
342.15	88.45851047
342.358	73.30027196
342.565	71.50665732
342.773	59.68763191
342.981	59.64804897
343.189	51.06447229
343.397	50.2656577
343.604	48.38552653
343.812	45.98828929
344.02	47.56485356
344.228	29.83675449
344.435	30.09590235
344.643	22.36185548
344.851	27.19339997
345.058	21.64029824
345.266	18.06311208
345.474	11.78039564
345.681	11.82974019
345.889	7.45406824
346.097	12.02252321
346.304	11.98816752
346.512	9.19440842
346.72	17.42215215
346.927	18.4417441
347.135	26.95713282
347.342	22.89369811
347.55	20.4706222
347.758	21.24073805
347.965	27.30542368
348.173	28.82394868
348.38	32.00106228
348.588	41.84673198
348.795	50.76106195
349.003	46.69767442
349.21	50.96077317
349.418	50.9154519
349.625	46.97734476
349.833	52.75223881
350.04	60.13850079
350.247	61.79150396
350.455	59.38517179
350.662	60.83559414
350.87	58.84204609
351.077	58.54644939
351.284	61.25599345
351.492	56.55486072
351.699	60.44882321
351.906	63.31070496
352.114	56.15643141
352.321	58.3253128
352.528	59.94397759
352.736	58.31164776
352.943	57.28894918
353.15	53.31998665
353.358	54.24591157
353.565	54.12225897
353.772	48.28422457
353.979	46.81236553
354.187	34.42369454
354.394	28.07230377
354.601	33.52831363
354.808	39.48874983
355.015	40.05453306
355.223	46.96240406
355.43	54.2148331
355.637	47.19726686
355.844	54.46483557
356.051	49.92962252
356.258	53.24043644
356.465	52.10169925
356.673	46.14270192
356.88	40.681074
357.087	45.14167243
357.294	46.28888602
357.501	43.32428285
357.708	50.30461271
357.915	47.75484678
358.122	63.71834466
358.329	57.05736959
358.536	63.69188583
358.743	61.69839341
358.95	56.01508824
359.157	51.67555738
359.364	52.67302741
359.571	41.95959917
359.778	26.29722922
359.985	34.03246398
360.192	20.35087719
360.399	20.76908787
360.606	11.76050045
360.812	25.16192345
361.019	28.91517947
361.226	34.45043356
361.433	31.61810291
361.64	12.13418986
361.847	9.27074107
362.054	-0.5730659
362.26	-5.01116348
362.467	-24.7471487
362.674	-1.89371981
362.881	0.91505868
363.088	23.12386607
363.294	17.42657797
363.501	18.44973139
363.708	22.27523483
363.915	25.73687994
364.121	35.42790494
364.328	32.11740042
364.535	45.63241411
364.741	45.32123961
364.948	47.78228838
365.155	41.62935144
365.361	33.62438482
365.568	30.60414523
365.775	24.56687998
365.981	31.58565737
366.188	30.32593292
366.395	39.81057616
366.601	52.19129632
366.808	58.27568753
367.014	55.41823392
367.221	58.31427063
367.427	51.18214488
367.634	58.58132136
367.84	55.68937624
368.047	51.11974829
368.254	50.36713634
368.46	42.8880386
368.667	32.58000362
368.873	28.52332042
369.079	29.67393402
369.286	24.0233967
369.492	23.0786074
369.699	27.1962434
369.905	32.42375602
370.112	31.71883196
370.318	30.29119896
370.524	29.06236113
370.731	21.37102903
370.937	8.43764488
371.144	17.89036783
371.35	12.99899121
371.556	15.73691919
371.763	19.45525292
371.969	17.29849098
372.175	18.7226132
372.381	17.29909288
372.588	12.48215908
372.794	10.94695371
373	15.88288638
373.206	9.90293648
373.413	10.69118148
373.619	16.58734177
373.825	10.71108008
374.031	12.71984029
374.238	8.3598803
374.444	13.39310731
374.65	13.70121894
374.856	15.52661266
375.062	11.75709201
375.268	12.83433767
375.475	3.92931621
375.681	11.3506196
375.887	6.29423936
376.093	-1.08909744
376.299	-5.13058619
376.505	1.37843283
376.711	4.00120639
376.917	7.09633518
377.123	6.96146681
377.329	5.99422483
377.535	9.2103943
377.741	12.56858888
377.947	8.72161211
378.153	10.82031654
378.359	13.53131862
378.565	17.8313253
378.771	14.2174549
378.977	10.45363
379.183	14.1948968
379.389	17.67838126
379.595	21.10505098
379.801	25.20638415
380.007	20.50909091
380.213	13.79474561
380.418	18.1592233
380.624	23.85775029
380.83	20.81846481
381.036	21.90008573
381.242	20.23387401
381.448	22.43642026
381.653	23.15438782
381.859	18.89964723
382.065	16.07918536
382.271	17.66043979
382.476	19.18029477
382.682	15.69119103
382.888	20.88033909
383.094	18.53204915
383.299	23.44739367
383.505	22.73442912
383.711	25.10172144
383.916	24.90764511
384.122	24.92245941
384.328	25.39702157
384.533	30.72849313
384.739	27.60358671
384.945	25.36758396
385.15	27.41682634
385.356	26.89047698
385.562	31.3438669
385.767	31.24899361
385.973	30.55541096
386.178	32.12445601
386.384	31.92558325
386.589	32.96276518
386.795	33.66514932
387	35.39300545
387.206	29.53534734
387.411	33.09466199
387.617	28.36461902
387.822	26.90468299
388.028	26.82937894
388.233	29.38312413
388.439	27.27632795
388.644	28.11292719
388.85	26.00476768
389.055	25.17488447
389.26	24.82821051
389.466	23.4391938
389.671	23.71656389
389.877	19.67783057
390.082	17.59127731
390.287	16.40974639
390.493	14.26547724
390.698	15.92759496
390.903	16.00630939
391.109	17.10306605
391.314	16.54145847
391.519	17.79309865
391.724	14.7120581
391.93	16.47793831
392.135	13.58567559
392.34	11.87645162
392.545	11.53885016
392.751	11.23654675
392.956	11.77809388
393.161	12.2228556
393.366	12.96864208
393.571	12.2749968
393.776	12.01600955
393.982	11.50108093
394.187	12.09173037
394.392	11.27400054
394.597	11.43313969
394.802	11.50113922
395.007	10.94328735
395.212	10.24331447
395.417	9.74451033
395.622	9.87698227
395.827	9.60546054
396.032	9.67493249
396.237	9.86610233
396.442	10.04602555
396.647	10.14289564
396.852	10.07234474
397.057	10.0269061
397.262	9.85942583
397.467	10.1798277
397.672	10.2431932
397.877	10.10321918
398.082	10.15626599
398.287	9.97014624
398.492	9.98596694
398.697	10.08248621
398.902	10.11017846
399.107	10.12973758
399.311	10.02179352
399.516	10.101487
399.721	10.12221955
399.926	10.00533105
400.131	9.96338648
400.336	9.90397214
400.54	9.83629896
400.745	9.82044459
400.95	9.85051403
401.155	9.68920627
401.359	9.71546845
401.564	9.77277957
401.769	9.63723781
401.974	9.48764446
402.178	9.70769993
402.383	9.51868296
402.588	9.60345975
402.792	9.59371735
402.997	9.6335259
403.202	9.64973905
403.406	9.5599227
403.611	9.6306641
403.815	9.47619618
404.02	9.51564358
404.225	9.49633401
404.429	9.54643387
404.634	9.50486565
404.838	9.4403129
405.043	9.2990247
405.247	9.15016148
405.452	9.15828719
405.656	9.13048181
405.861	9.12065928
406.065	8.94894761
406.27	9.04647623
406.474	8.86624972
406.679	9.03601764
406.883	8.9341946
407.088	8.77929242
407.292	8.65970733
407.497	8.60760347
407.701	8.74356018
407.905	8.80893846
408.11	8.85523899
408.314	8.88772605
408.518	8.87878683
408.723	9.12672038
408.927	9.18612197
409.131	9.29262305
409.336	9.31672012
409.54	9.23749187
409.744	9.30210314
409.949	9.62210429
410.153	9.58875149
410.357	9.77359775
410.561	9.52373354
410.766	9.5605424
410.97	9.39686443
411.174	9.56308525
411.378	9.89463541
411.582	9.88603401
411.787	9.64913399
411.991	9.48319783
412.195	9.28760211
412.399	9.31342319
412.603	9.38418158
412.807	9.44560244
413.011	9.47168035
413.215	9.56035225
413.419	9.46710427
413.624	9.60594986
413.828	9.55987726
414.032	9.33296282
414.236	9.23689357
414.44	9.30319419
414.644	9.19544556
414.848	9.25456173
415.052	9.18437989
415.256	9.20278417
415.46	9.06998898
415.664	8.94539236
415.868	9.02400178
416.072	8.99936143
416.275	8.88752888
416.479	9.01250982
416.683	9.06132535
416.887	8.97206541
417.091	8.85926087
417.295	8.87044849
417.499	8.84418437
417.703	8.8112046
417.906	8.80056052
418.11	8.84344693
418.314	9.12817137
418.518	8.9343284
418.722	8.76905281
418.925	8.75729845
419.129	8.74690323
419.333	8.85427018
419.537	8.86541297
419.74	8.96655852
419.944	8.95686246
420.148	8.96422817
420.352	9.17360229
420.555	9.21329967
420.759	9.18041412
420.963	9.23545141
421.166	9.2204121
421.37	9.36589139
421.573	9.27606553
421.777	9.33696791
421.981	9.35188783
422.184	9.48674509
422.388	9.40997462
422.591	9.31753729
422.795	9.40417452
422.999	9.45406499
423.202	9.42177662
423.406	9.52477254
423.609	9.46234148
423.813	9.40311935
424.016	9.2869183
424.22	9.25081641
424.423	9.08450993
424.627	9.02668864
424.83	9.10118536
425.033	9.00604461
425.237	8.96181589
425.44	8.9867421
425.644	8.92294679
425.847	8.88570733
426.05	8.9143173
426.254	8.91917934
426.457	8.89308859
426.66	8.98730892
426.864	8.94125479
427.067	8.91755162
427.27	8.94434275
427.474	8.98275659
427.677	8.94812109
427.88	8.9249193
428.084	8.92129978
428.287	8.97126305
428.49	8.99738813
428.693	9.00165158
428.896	8.9797471
429.1	8.97387462
429.303	8.99160819
429.506	8.98010909
429.709	8.97386266
429.912	8.95155341
430.116	8.92591945
430.319	8.92562932
430.522	8.92117393
430.725	8.93005066
430.928	8.91941821
431.131	8.93767464
431.334	8.92713432
431.537	8.92841328
431.74	8.89526031
431.943	8.92919493
432.146	8.95781946
432.349	8.9504803
432.552	8.93617143
432.755	8.90785817
432.958	8.91177827
433.161	8.93896681
433.364	8.93271213
433.567	8.93590712
433.77	8.94323997
433.973	8.93516958
434.176	8.95431475
434.379	8.97787059
434.582	8.96210155
434.785	8.95703572
434.988	8.96163515
435.19	8.95109823
435.393	8.93406198
435.596	8.96946979
435.799	8.95637623
436.002	8.98265373
436.205	8.9651131
436.407	8.93985879
436.61	8.9761479
436.813	8.98522914
437.016	9.00980512
437.218	9.02935934
437.421	9.02878858
437.624	8.99875352
437.827	8.97819228
438.029	9.00011689
438.232	8.98348316
438.435	8.96582483
438.637	8.98476202
438.84	8.99397311
439.043	9.00097276
439.245	8.9816052
439.448	8.97164522
439.65	8.9931195
439.853	8.95586245
440.056	8.95196638
440.258	8.93444612
440.461	8.86595034
440.663	8.86232779
440.866	8.84485422
441.068	8.86028359
441.271	8.77884191
441.473	8.75359591
441.676	8.68879221
441.878	8.71743271
442.081	8.71219333
442.283	8.66601461
442.486	8.70452688
442.688	8.73396623
442.89	8.68407964
443.093	8.65079217
443.295	8.64911441
443.498	8.58905658
443.7	8.60202921
443.902	8.58293218
444.105	8.55833621
444.307	8.58650345
444.509	8.58280173
444.712	8.5809319
444.914	8.52467038
445.116	8.525375
445.319	8.45975491
445.521	8.46323197
445.723	8.43964053
445.925	8.4875129
446.128	8.51659835
446.33	8.56357845
446.532	8.4925881
446.734	8.47349879
446.936	8.38550599
447.139	8.36449663
447.341	8.38120248
447.543	8.42937785
447.745	8.47400514
447.947	8.44262287
448.149	8.4195886
448.351	8.41790841
448.553	8.36667144
448.755	8.34817983
448.958	8.45025763
449.16	8.51275308
449.362	8.51113275
449.564	8.45085482
449.766	8.54185856
449.968	8.55246994
450.17	8.57279315
450.372	8.52852409
450.574	8.52881399
450.776	8.54007432
450.978	8.52773919
451.179	8.64881892
451.381	8.70176437
451.583	8.67323014
451.785	8.56449787
451.987	8.55868635
452.189	8.64664568
452.391	8.65602232
452.593	8.66985057
452.795	8.70109455
452.996	8.69778171
453.198	8.6253733
453.4	8.66589157
453.602	8.65990529
453.804	8.69839996
454.005	8.66781555
454.207	8.68079865
454.409	8.62201197
454.611	8.65399948
454.812	8.6148837
455.014	8.62429247
455.216	8.66123113
455.417	8.62098661
455.619	8.56012759
455.821	8.49093394
456.022	8.60629362
456.224	8.54760577
456.426	8.48625511
456.627	8.49578102
456.829	8.55208116
457.031	8.54178548
457.232	8.62706248
457.434	8.66047658
457.635	8.56879514
457.837	8.54729747
458.038	8.47781665
458.24	8.47650533
458.441	8.48944164
458.643	8.49429716
458.844	8.45116295
459.046	8.46573559
459.247	8.55516584
459.449	8.57341234
459.65	8.55006214
459.852	8.61037675
460.053	8.70318549
460.254	8.6850296
460.456	8.69074551
460.657	8.75471019
460.859	8.75474021
461.06	8.74728133
461.261	8.74869982
461.463	8.71237825
461.664	8.73465796
461.865	8.74131944
462.066	8.72867752
462.268	8.81593341
462.469	8.79205982
462.67	8.79304288
462.872	8.81592983
463.073	8.84117175
463.274	8.8252884
463.475	8.73912516
463.676	8.65667573
463.878	8.69537656
464.079	8.72275789
464.28	8.67270009
464.481	8.66179761
464.682	8.6982996
464.883	8.57045315
465.085	8.58027347
465.286	8.53045087
465.487	8.57572204
465.688	8.49056304
465.889	8.43577469
466.09	8.46432635
466.291	8.50354552
466.492	8.43425583
466.693	8.4085994
466.894	8.34331823
467.095	8.3611881
467.296	8.31783969
467.497	8.3501702
467.698	8.31049736
467.899	8.35286062
468.1	8.35234307
468.301	8.36024516
468.502	8.36939562
468.703	8.3374486
468.903	8.38947104
469.104	8.43479439
469.305	8.46786258
469.506	8.48896363
469.707	8.40615076
469.908	8.43753241
470.109	8.42509268
470.309	8.39239133
470.51	8.399618
470.711	8.49312702
470.912	8.58202725
471.112	8.53350706
471.313	8.46124259
471.514	8.47914927
471.715	8.49493001
471.915	8.60767628
472.116	8.61302434
472.317	8.6003632
472.517	8.56907273
472.718	8.6451104
472.919	8.67194851
473.119	8.61729047
473.32	8.66897928
473.521	8.58970248
473.721	8.65219174
473.922	8.6469963
474.122	8.69214581
474.323	8.76176778
474.523	8.81177724
474.724	8.77331136
474.925	8.79346679
475.125	8.77994119
475.326	8.88004512
475.526	8.91329691
475.727	8.92994094
475.927	8.92764119
476.127	8.88605037
476.328	8.89053388
476.528	8.90971198
476.729	8.95794368
476.929	8.91024438
477.13	8.92896005
477.33	8.96619235
477.53	8.99398242
477.731	9.02282831
477.931	9.01346135
478.131	9.02868902
478.332	9.05303108
478.532	9.05860511
478.732	9.07801109
478.933	9.08993915
479.133	9.09600957
479.333	9.09908883
479.533	9.08974283
479.734	9.12859406
479.934	9.15597248
480.134	9.15306364
480.334	9.1757253
480.534	9.18724354
480.735	9.19587841
480.935	9.18037806
481.135	9.1882469
481.335	9.18387716
481.535	9.17431296
481.735	9.1552141
481.935	9.16415652
482.136	9.16268775
482.336	9.18421657
482.536	9.20551718
482.736	9.22699717
482.936	9.24346887
483.136	9.26279729
483.336	9.24390082
483.536	9.25626537
483.736	9.27616388
483.936	9.28882346
484.136	9.30030409
484.336	9.30292586
484.536	9.31046505
484.736	9.30944793
484.936	9.31508587
485.135	9.32370644
485.335	9.35007898
485.535	9.36579545
485.735	9.39615707
485.935	9.4170976
486.135	9.44747932
486.335	9.46478261
486.534	9.49000127
486.734	9.48884632
486.934	9.48963405
487.134	9.49279334
487.334	9.5167237
487.533	9.54528879
487.733	9.56310231
487.933	9.58100197
488.133	9.59496535
488.332	9.59298424
488.532	9.6436318
488.732	9.67418984
488.931	9.71304342
489.131	9.73368205
489.331	9.77534614
489.53	9.79047484
489.73	9.82610977
489.93	9.8627319
490.129	9.90035076
490.329	9.8942114
490.528	9.93217993
490.728	9.95287561
490.928	9.98754226
491.127	10.01834377
491.327	10.04374046
491.526	10.09890408
491.726	10.15835074
491.925	10.19821314
492.125	10.2524156
492.324	10.28903004
492.524	10.35820507
492.723	10.40344474
492.922	10.44019663
493.122	10.49898089
493.321	10.56451055
493.521	10.62709965
493.72	10.69450988
493.919	10.75531093
494.119	10.80681282
494.318	10.87351109
494.517	10.97770432
494.717	11.02367913
494.916	11.09157336
495.115	11.18032837
495.315	11.25046787
495.514	11.35254055
495.713	11.37729255
495.912	11.42796052
496.112	11.55029531
496.311	11.61830765
496.51	11.70237514
496.709	11.79243128
496.908	11.88914362
497.108	12.01840013
497.307	12.11050042
497.506	12.2353409
497.705	12.30246848
497.904	12.42891915
498.103	12.55574154
498.302	12.65278327
498.501	12.80375277
498.701	12.97239363
498.9	13.14300191
499.099	13.32097926
499.298	13.4141073
499.497	13.59449306
499.696	13.64594819
499.895	13.8534698
500.094	14.08054757
500.293	14.19533163
500.492	14.37133304
500.691	14.62846326
500.89	14.85090868
501.088	15.01109026
501.287	15.18315625
501.486	15.36740015
501.685	15.53670886
501.884	15.71769596
502.083	15.94381308
502.282	16.10878338
502.481	16.33872876
502.679	16.45938961
502.878	16.58428898
503.077	16.86334538
503.276	17.10016182
503.475	17.3126445
503.673	17.48597887
503.872	17.88521712
504.071	18.16030502
504.27	18.3469826
504.468	18.61091202
504.667	18.90795803
504.866	19.0710282
505.064	19.29790577
505.263	19.49286218
505.462	19.7366587
505.66	20.09897582
505.859	20.46439749
506.058	20.84390565
506.256	21.16151063
506.455	21.50667783
506.653	21.86395603
506.852	22.28268805
507.05	22.66073877
507.249	22.85713271
507.448	23.11991457
507.646	23.46707429
507.845	23.86329983
508.043	24.15099627
508.242	24.39429632
508.44	24.75670511
508.638	24.98974238
508.837	25.27301092
509.035	25.65367237
509.234	25.98521227
509.432	26.21397569
509.631	26.48123227
509.829	26.5682957
510.027	26.80140389
510.226	27.05419609
510.424	27.36875511
510.622	27.61061868
510.821	27.77453554
511.019	27.84139164
511.217	27.92507291
511.415	28.22147441
511.614	28.37149622
511.812	28.57453091
512.01	28.80588824
512.208	29.04420124
512.407	29.17114582
512.605	29.22737862
512.803	29.51186363
513.001	29.64733923
513.199	29.66822665
513.398	29.75722846
513.596	30.15657737
513.794	30.31369392
513.992	30.58505513
514.19	30.54697689
514.388	30.71876444
514.586	30.66133837
514.784	30.7659906
514.982	30.78235146
515.18	30.99637584
515.378	31.2648293
515.576	31.31504378
515.774	31.450058
515.972	31.58854707
516.17	31.6678099
516.368	31.64700095
516.566	31.71613801
516.764	31.73542547
516.962	31.83569935
517.16	31.98885338
517.358	31.97441099
517.556	32.05305376
517.754	31.82595541
517.952	31.69700869
518.149	31.64885126
518.347	31.61828243
518.545	31.5190972
518.743	31.60757827
518.941	31.51169713
519.138	31.69137968
519.336	31.67658233
519.534	31.61190458
519.732	31.46094894
519.929	31.24634871
520.127	30.98592945
520.325	30.75146672
520.523	30.91507307
520.72	31.02706722
520.918	31.060074
521.116	30.90814569
521.313	30.79600841
521.511	30.83009547
521.709	30.63523509
521.906	30.61520055
522.104	30.65374352
522.301	30.53397669
522.499	30.61423111
522.696	30.49365676
522.894	30.29621942
523.092	30.20566305
523.289	29.98839969
523.487	29.73771634
523.684	29.60643112
523.882	29.55759474
524.079	29.52585406
524.276	29.52263108
524.474	29.51901924
524.671	29.18376237
524.869	29.03257357
525.066	28.95101427
525.264	28.81118313
525.461	28.73457741
525.658	28.54760313
525.856	28.46705903
526.053	28.44892881
526.25	28.38176371
526.448	28.28788222
526.645	28.11544382
526.842	28.06804261
527.039	27.99299121
527.237	27.91066054
527.434	27.78880136
527.631	27.70627122
527.828	27.60348388
528.026	27.50505196
528.223	27.37660687
528.42	27.24471448
528.617	27.06046939
528.814	26.93626082
529.012	26.81368781
529.209	26.7111357
529.406	26.5847788
529.603	26.40086926
529.8	26.25576375
529.997	26.13060672
530.194	25.93841302
530.391	25.7695285
530.588	25.66040958
530.785	25.51296818
530.982	25.306566
531.179	25.12427767
531.376	24.97502807
531.573	24.81724295
531.77	24.66317906
531.967	24.53534636
532.164	24.37735426
532.361	24.24761662
532.558	24.12442681
532.755	24.01312862
532.952	23.92823879
533.149	23.83622979
533.346	23.73853443
533.543	23.65493453
533.739	23.57185131
533.936	23.51000471
534.133	23.4389862
534.33	23.38300104
534.527	23.31478378
534.723	23.24815176
534.92	23.17145795
535.117	23.11998782
535.314	23.06917064
535.51	23.00136107
535.707	22.9293136
535.904	22.87395184
536.1	22.80559288
536.297	22.75848096
536.494	22.70790556
536.69	22.65403324
536.887	22.59826309
537.084	22.55623036
537.28	22.500793
537.477	22.44969585
537.674	22.39687675
537.87	22.34823854
538.067	22.29458752
538.263	22.24683661
538.46	22.20256431
538.656	22.15880255
538.853	22.11557787
539.049	22.08328247
539.246	22.04011437
539.442	21.99640624
539.639	21.96230179
539.835	21.93895706
540.032	21.90534585
540.228	21.87605099
540.424	21.83505672
540.621	21.8040868
540.817	21.77247169
541.014	21.75056932
541.21	21.70686595
541.406	21.67166956
541.603	21.63683819
541.799	21.61057675
541.995	21.58110501
542.191	21.54534746
542.388	21.51111363
542.584	21.47320402
542.78	21.43590047
542.976	21.40832625
543.173	21.37262983
543.369	21.34329661
543.565	21.31101956
543.761	21.27065374
543.957	21.22202678
544.154	21.18534999
544.35	21.14517515
544.546	21.10931341
544.742	21.07256512
544.938	21.03667401
545.134	20.98651912
545.33	20.94748125
545.526	20.91160599
545.722	20.873006
545.919	20.8255698
546.115	20.78224959
546.311	20.74553275
546.507	20.70162561
546.703	20.66001193
546.899	20.62362329
547.095	20.57293291
547.29	20.52674313
547.486	20.47350152
547.682	20.42352325
547.878	20.38274821
548.074	20.33882038
548.27	20.27962274
548.466	20.22393794
548.662	20.18088885
548.858	20.11267582
549.053	20.05428736
549.249	20.00590214
549.445	19.95008046
549.641	19.89546075
549.837	19.85153486
550.032	19.80332053
550.228	19.75017732
550.424	19.69087025
550.62	19.63167425
550.815	19.56977558
551.011	19.50887335
551.207	19.44208303
551.402	19.37671669
551.598	19.3230973
551.794	19.27029438
551.989	19.2018044
552.185	19.1416496
552.381	19.08722333
552.576	19.03208374
552.772	18.9538726
552.967	18.89261809
553.163	18.81032596
553.359	18.73895313
553.554	18.66958155
553.75	18.58342475
553.945	18.49106292
554.141	18.38622463
554.336	18.28237571
554.532	18.18798069
554.727	18.08306909
554.922	18.00207538
555.118	17.91068017
555.313	17.82261288
555.509	17.72373823
555.704	17.60256764
555.899	17.47521902
556.095	17.37785153
556.29	17.31342451
556.486	17.19082412
556.681	17.08300963
556.876	16.95426078
557.071	16.87841943
557.267	16.80810276
557.462	16.70964949
557.657	16.6203768
557.853	16.53939933
558.048	16.43374946
558.243	16.36625252
558.438	16.29420358
558.633	16.20847956
558.829	16.20008512
559.024	16.06789411
559.219	15.93609278
559.414	15.84264307
559.609	15.76720333
559.804	15.67339579
559.999	15.55775229
560.194	15.48103983
560.39	15.29822452
560.585	15.21674956
560.78	15.12322209
560.975	15.13007033
561.17	15.09375346
561.365	15.04937152
561.56	14.97406783
561.755	14.87063021
561.95	14.84159037
562.145	14.71543271
562.34	14.70494714
562.535	14.58939953
562.729	14.59615729
562.924	14.63677676
563.119	14.51574518
563.314	14.49273675
563.509	14.40345899
563.704	14.4037652
563.899	14.31485048
564.093	14.408472
564.288	14.25139806
564.483	14.29909702
564.678	14.29076283
564.873	14.31655049
565.067	14.12236581
565.262	13.95884745
565.457	13.88810032
565.652	13.9477746
565.846	14.06441317
566.041	13.97287048
566.236	13.93948225
566.43	13.83088955
566.625	13.7929194
566.82	13.65138376
567.014	13.37347626
567.209	13.4379528
567.404	13.58158933
567.598	13.45464811
567.793	13.37214694
567.987	13.39485847
568.182	13.22106936
568.376	13.15940708
568.571	13.0342508
568.765	12.95127089
568.96	12.80447367
569.154	12.75571425
569.349	12.64010186
569.543	12.67903998
569.738	12.61100887
569.932	12.50681603
570.127	12.42615768
570.321	12.38232932
570.515	12.33824392
570.71	12.30059656
570.904	12.31976315
571.098	12.31413381
571.293	12.30163462
571.487	12.17176889
571.681	12.16165805
571.876	12.14563581
572.07	12.11507501
572.264	12.112016
572.458	12.11118054
572.653	12.10637571
572.847	12.10150418
573.041	12.11348994
573.235	12.13200294
573.43	12.12798433
573.624	12.0699617
573.818	12.05310413
574.012	12.02443272
574.206	12.0201989
574.4	12.01708876
574.594	12.00453345
574.788	12.02628649
574.983	12.01474324
575.177	12.00903396
575.371	12.0029518
575.565	11.99963816
575.759	12.00462772
575.953	11.98240122
576.147	11.97919829
576.341	11.97140577
576.535	11.95651858
576.729	11.95336041
576.923	11.9405186
577.117	11.9379607
577.31	11.89978772
577.504	11.90873345
577.698	11.92364233
577.892	11.89533966
578.086	11.87471626
578.28	11.86557191
578.474	11.86344778
578.668	11.88005372
578.861	11.89133074
579.055	11.87983789
579.249	11.88234964
579.443	11.87133159
579.636	11.86015045
579.83	11.83306671
580.024	11.82595551
580.218	11.81405247
580.411	11.81041724
580.605	11.81064339
580.799	11.81406075
580.992	11.80705306
581.186	11.80637962
581.38	11.82381044
581.573	11.79135254
581.767	11.78371753
581.961	11.78680524
582.154	11.80005235
582.348	11.8043125
582.541	11.80486723
582.735	11.78165224
582.928	11.75567791
583.122	11.75177299
583.315	11.74153912
583.509	11.73271515
583.702	11.74107727
583.896	11.75074114
584.089	11.75821526
584.283	11.75307681
584.476	11.75600619
584.67	11.75759128
584.863	11.75790482
585.056	11.76270211
585.25	11.7552368
585.443	11.74788875
585.636	11.77211621
585.83	11.76607857
586.023	11.76117982
586.216	11.77230297
586.41	11.77934915
586.603	11.76792067
586.796	11.7722371
586.989	11.76629381
587.183	11.76466098
587.376	11.78571132
587.569	11.78851158
587.762	11.77160207
587.955	11.76103675
588.149	11.74187441
588.342	11.7279125
588.535	11.72331328
588.728	11.70870783
588.921	11.71673747
589.114	11.70879627
589.307	11.6909797
589.5	11.70739723
589.693	11.7138083
589.886	11.70914005
590.08	11.69366749
590.273	11.68462099
590.466	11.65759063
590.659	11.66171453
590.852	11.66044003
591.044	11.6686823
591.237	11.64699873
591.43	11.63156767
591.623	11.63924757
591.816	11.6532813
592.009	11.65127158
592.202	11.67179374
592.395	11.69054994
592.588	11.68330484
592.781	11.69663484
592.973	11.67279136
593.166	11.67005012
593.359	11.67605699
593.552	11.66863891
593.745	11.65246424
593.937	11.65289549
594.13	11.65186364
594.323	11.64965068
594.515	11.67171328
594.708	11.67744315
594.901	11.67007138
595.094	11.64579045
595.286	11.65349771
595.479	11.62871748
595.672	11.61602766
595.864	11.60622649
596.057	11.62843412
596.249	11.61770045
596.442	11.62646151
596.635	11.63404013
596.827	11.61521476
597.02	11.60313809
597.212	11.61767311
597.405	11.61709832
597.597	11.58773222
597.79	11.56935257
597.982	11.54683751
598.175	11.53727182
598.367	11.56187434
598.559	11.52595233
598.752	11.51143755
598.944	11.51572769
599.137	11.54147702
599.329	11.53802571
599.521	11.55010442
599.714	11.53421308
599.906	11.54176553
600.098	11.51805059
600.291	11.51844847
600.483	11.49156116
600.675	11.46313337
600.868	11.47071507
601.06	11.45802564
601.252	11.41823863
601.444	11.38538932
601.637	11.36617532
601.829	11.36735036
602.021	11.36930882
602.213	11.35833378
602.405	11.31463093
602.597	11.32126295
602.789	11.30282245
602.982	11.30850505
603.174	11.28664277
603.366	11.2863447
603.558	11.27874584
603.75	11.27404743
603.942	11.27564627
604.134	11.26759891
604.326	11.26767611
604.518	11.26906227
604.71	11.27323443
604.902	11.25486624
605.094	11.25031887
605.286	11.25347028
605.478	11.26061296
605.67	11.26676536
605.862	11.26658047
606.054	11.26472406
606.246	11.26424721
606.437	11.27354401
606.629	11.27068732
606.821	11.27573321
607.013	11.27126396
607.205	11.28050413
607.397	11.27808195
607.588	11.28595999
607.78	11.29066853
607.972	11.28301488
608.164	11.29198755
608.355	11.29068574
608.547	11.29519294
608.739	11.28641142
608.93	11.30220222
609.122	11.30732766
609.314	11.30327238
609.505	11.31010968
609.697	11.31064969
609.889	11.30420869
610.08	11.31197767
610.272	11.32649542
610.463	11.326916
610.655	11.33660571
610.847	11.34441226
611.038	11.35059804
611.23	11.34945752
611.421	11.3609392
611.613	11.35506535
611.804	11.3562221
611.996	11.3677237
612.187	11.36662036
612.379	11.36991772
612.57	11.37137398
612.761	11.38393995
612.953	11.38055911
613.144	11.38637879
613.336	11.40254645
613.527	11.3961554
613.718	11.4048974
613.91	11.42050404
614.101	11.4235087
614.292	11.4236336
614.483	11.4242617
614.675	11.42330259
614.866	11.41812188
615.057	11.41522064
615.248	11.42717951
615.44	11.42785818
615.631	11.4332208
615.822	11.44457341
616.013	11.44819739
616.204	11.46440907
616.396	11.47556079
616.587	11.48847468
616.778	11.49736191
616.969	11.51577439
617.16	11.52615446
617.351	11.53226509
617.542	11.54839493
617.733	11.55364618
617.924	11.55986154
618.115	11.56765885
618.306	11.58382052
618.497	11.59844658
618.688	11.62766575
618.879	11.66354946
619.07	11.69469761
619.261	11.70522403
619.452	11.73601438
619.643	11.76314632
619.834	11.79644826
620.025	11.83824924
620.216	11.85908988
620.407	11.89335547
620.597	11.92134792
620.788	11.95012854
620.979	11.99753407
621.17	12.04348053
621.361	12.08339685
621.551	12.12634028
621.742	12.16256026
621.933	12.24097147
622.124	12.29249021
622.314	12.33807057
622.505	12.40043669
622.696	12.41863901
622.886	12.45695112
623.077	12.4805161
623.268	12.53482562
623.458	12.56610576
623.649	12.60605141
623.84	12.63016504
624.03	12.63550008
624.221	12.66741173
624.411	12.67998305
624.602	12.71552528
624.792	12.76236237
624.983	12.77648921
625.173	12.79743132
625.364	12.82580011
625.554	12.84598671
625.745	12.87764277
625.935	12.88295369
626.126	12.880792
626.316	12.89312466
626.507	12.91430345
626.697	12.923475
626.887	12.94285454
627.078	12.9656301
627.268	12.97705069
627.458	12.99983752
627.649	13.0109428
627.839	13.03463983
628.029	13.06859881
628.22	13.10393203
628.41	13.12383484
628.6	13.1186357
628.79	13.12139155
628.981	13.12343913
629.171	13.11683364
629.361	13.11463559
629.551	13.13514559
629.741	13.17460977
629.932	13.19347648
630.122	13.21928215
630.312	13.25194873
630.502	13.27940573
630.692	13.30828627
630.882	13.28706901
631.072	13.29682241
631.262	13.31532146
631.452	13.33208968
631.642	13.36009148
631.832	13.36594788
632.022	13.40022423
632.212	13.41055089
632.402	13.4541052
632.592	13.5050286
632.782	13.52353954
632.972	13.55593817
633.162	13.61578829
633.352	13.70850525
633.542	13.72184899
633.732	13.72306576
633.922	13.72752415
634.111	13.7795778
634.301	13.80579086
634.491	13.80427337
634.681	13.83640348
634.871	13.92629633
635.06	13.98114928
635.25	14.06163142
635.44	14.13554198
635.63	14.15908357
635.819	14.20277541
636.009	14.2589388
636.199	14.28003334
636.388	14.2938456
636.578	14.29601704
636.768	14.39945746
636.957	14.4070889
637.147	14.44838934
637.337	14.48299747
637.526	14.60712974
637.716	14.62268006
637.905	14.72948523
638.095	14.75838767
638.284	14.76147373
638.474	14.83015116
638.663	14.96686459
638.853	15.02547966
639.042	15.11893937
639.232	15.12628389
639.421	15.1420047
639.611	15.25252563
639.8	15.34741734
639.99	15.35190203
640.179	15.39624047
640.368	15.56602025
640.558	15.72636761
640.747	15.79739889
640.936	16.00697055
641.126	16.10542397
641.315	16.18483681
641.504	16.22820182
641.694	16.41431704
641.883	16.51353077
642.072	16.60745688
642.261	16.7038066
642.451	16.69991419
642.64	16.66567131
642.829	16.72837535
643.018	16.81719015
643.207	16.92690672
643.397	16.93551053
643.586	17.00670943
643.775	17.03075294
643.964	17.09581323
644.153	17.20059211
644.342	17.20389576
644.531	17.14616535
644.72	17.0791815
644.909	17.03782893
645.098	17.07637455
645.287	17.07020642
645.476	17.10683907
645.665	17.09984414
645.854	17.02472149
646.043	17.07759207
646.232	17.17809143
646.421	17.17786388
646.61	17.31222618
646.799	17.29772855
646.988	17.311186
647.177	17.25130705
647.365	17.32502631
647.554	17.3802696
647.743	17.42273108
647.932	17.36393804
648.121	17.40626377
648.309	17.40522113
648.498	17.52867074
648.687	17.62135083
648.876	17.68053888
649.064	17.74490264
649.253	17.73930305
649.442	17.74444166
649.63	17.80373859
649.819	17.88232809
650.008	17.84101254
650.196	17.84849476
650.385	17.95296032
650.574	17.93360681
650.762	17.94361221
650.951	17.96302442
651.139	17.99532161
651.328	17.9989862
651.516	17.99885654
651.705	17.98730925
651.893	18.12233464
652.082	18.15058436
652.27	18.22649343
652.459	18.21843666
652.647	18.21097166
652.836	18.30284519
653.024	18.23655217
653.213	18.37730866
653.401	18.41881255
653.589	18.39201577
653.778	18.46148066
653.966	18.55375797
654.154	18.52837335
654.343	18.49395887
654.531	18.51924081
654.719	18.59139748
654.908	18.57784282
655.096	18.66794153
655.284	18.67579545
655.472	18.67651292
655.661	18.74212224
655.849	18.68619793
656.037	18.70575604
656.225	18.69845848
656.413	18.68703571
656.601	18.69615486
656.79	18.60157162
656.978	18.72475964
657.166	18.67106639
657.354	18.73451895
657.542	18.76627405
657.73	18.67262868
657.918	18.66753668
658.106	18.71186422
658.294	18.7674808
658.482	18.7938107
658.67	18.76751538
658.858	18.77719278
659.046	18.63387605
659.234	18.63406222
659.422	18.74168285
659.61	18.75029068
659.798	18.86036128
659.986	18.87183544
660.173	18.94177944
660.361	18.93782688
660.549	18.97174216
660.737	19.07584169
660.925	18.99640133
661.113	18.92658443
661.3	18.89307685
661.488	18.98678203
661.676	18.979431
661.864	18.96160165
662.051	19.02987297
662.239	19.06572487
662.427	19.00001904
662.614	18.97014808
662.802	19.07794896
662.99	19.0774539
663.177	19.08140129
663.365	18.98770096
663.553	18.98274809
663.74	18.95633105
663.928	18.82089909
664.115	18.86348308
664.303	18.88711739
664.49	18.98152451
664.678	18.9498097
664.866	18.94331764
665.053	18.96566168
665.24	18.95693496
665.428	18.9027855
665.615	19.03480606
665.803	19.16991322
665.99	19.11620574
666.178	19.14210859
666.365	19.14768568
666.552	19.15775693
666.74	18.99545869
666.927	19.20722359
667.114	19.14738852
667.302	19.2378106
667.489	19.08493312
667.676	18.95184964
667.864	18.91593092
668.051	18.74222461
668.238	18.72541661
668.425	18.55481898
668.613	18.57532293
668.8	18.71949961
668.987	18.76759682
669.174	18.72958584
669.361	18.62153514
669.548	18.60398895
669.736	18.37124027
669.923	18.22785184
670.11	18.08820271
670.297	18.16911918
670.484	18.20829116
670.671	18.26845161
670.858	18.18078959
671.045	18.14584321
671.232	17.99915061
671.419	18.06719499
671.606	18.14888245
671.793	18.38292412
671.98	18.42419132
672.167	18.41152239
672.354	18.48762074
672.541	18.43360101
672.728	18.33724411
672.915	18.30882693
673.101	18.22210942
673.288	18.07335963
673.475	17.89744898
673.662	17.99049316
673.849	18.16534765
674.035	18.27141503
674.222	18.02981195
674.409	17.98699236
674.596	17.91141681
674.783	17.78814142
674.969	17.82705992
675.156	17.90818482
675.343	18.03433325
675.529	17.9774587
675.716	17.76157841
675.903	17.68394071
676.089	17.62918623
676.276	17.57938753
676.462	17.47304883
676.649	17.22328637
676.836	16.97397286
677.022	17.10472938
677.209	17.33947056
677.395	17.32599463
677.582	17.22660388
677.768	17.16873279
677.955	16.89954238
678.141	16.98703596
678.328	16.95588207
678.514	16.9595775
678.701	17.05509402
678.887	17.01928041
679.073	16.86100934
679.26	16.85936147
679.446	16.79787761
679.632	16.70674617
679.819	16.64433468
680.005	16.69631356
680.191	16.50445703
680.378	16.52438893
680.564	16.5679094
680.75	16.71509806
680.936	16.68421559
681.123	16.54304725
681.309	16.41447391
681.495	16.27122863
681.681	16.2553701
681.867	16.38844305
682.054	16.3409105
682.24	16.43824933
682.426	16.48763622
682.612	16.39036381
682.798	16.31217613
682.984	16.34183705
683.17	16.20303873
683.356	16.2250926
683.542	16.20800419
683.728	16.12169311
683.914	16.16088873
684.1	16.32425913
684.286	16.18770487
684.472	16.17341005
684.658	16.06408696
684.844	15.93960317
685.03	15.92895582
685.216	16.09061648
685.402	16.31357365
685.588	16.12956822
685.774	16.08829037
685.96	16.17826918
686.145	15.99878361
686.331	15.82799355
686.517	15.85763787
686.703	15.92922019
686.889	15.9323257
687.074	15.90150774
687.26	15.99830882
687.446	16.13381244
687.631	16.2067396
687.817	16.10645581
688.003	15.95420539
688.189	16.06815507
688.374	16.03580913
688.56	16.07064262
688.745	16.1092265
688.931	16.03641475
689.117	15.88195133
689.302	15.83764551
689.488	16.03915763
689.673	16.00460751
689.859	15.97760492
690.044	16.11486345
690.23	16.22316798
690.415	16.24335516
690.601	16.2254245
690.786	16.03732658
690.972	16.13307679
691.157	16.11779347
691.343	16.0280384
691.528	16.12614733
691.713	16.12208798
691.899	16.42944893
692.084	16.45770967
692.269	16.5945055
692.455	16.84241349
692.64	16.88526116
692.825	17.17430549
693.011	17.46313739
693.196	17.55422846
693.381	17.37400088
693.566	17.33413392
693.752	17.28092769
693.937	17.37815008
694.122	17.32661234
694.307	17.19732093
694.492	17.21400855
694.678	17.23317514
694.863	17.12085032
695.048	17.14432702
695.233	16.99154609
695.418	17.14290698
695.603	17.34168845
695.788	17.19966685
695.973	17.29716837
696.158	17.34488894
696.343	17.19903448
696.528	17.17611288
696.713	17.01370579
696.898	17.00133026
697.083	16.88815356
697.268	16.93038163
697.453	16.89277564
697.638	16.92078744
697.823	16.71258559
698.008	16.73978035
698.192	16.63041792
698.377	16.70563231
698.562	16.93937356
698.747	16.88258367
698.932	16.66002613
699.117	16.75725337
699.301	16.67111142
699.486	16.54768451
699.671	16.67195017
699.856	16.69576068
700.04	16.5324538
700.225	16.48952058
700.41	16.50447356
700.594	16.54681801
700.779	16.43579818
700.964	16.39570154
701.148	16.4260693
701.333	16.46949633
701.517	16.49605062
701.702	16.56599944
701.887	16.67862693
702.071	16.76634652
702.256	16.81953107
702.44	16.86347438
702.625	16.92356967
702.809	17.04747452
702.994	17.0611547
703.178	17.05613416
703.362	17.13974888
703.547	17.00287781
703.731	17.01849564
703.916	17.09760224
704.1	17.10885779
704.284	17.14814506
704.469	17.15496937
704.653	17.21699701
704.837	17.27222036
705.022	17.25813532
705.206	17.26728917
705.39	17.33165477
705.575	17.27615373
705.759	17.10542525
705.943	17.16653116
706.127	17.14200835
706.311	17.05637601
706.496	17.06430605
706.68	17.05655083
706.864	17.05366864
707.048	17.09084972
707.232	17.06181061
707.416	17.16770695
707.6	17.19973628
707.785	17.20746243
707.969	17.23092921
708.153	17.22370246
708.337	17.18725606
708.521	17.2024067
708.705	17.22534727
708.889	17.21490139
709.073	17.23747014
709.257	17.19805109
709.441	17.27001162
709.624	17.42749017
709.808	17.4623148
709.992	17.50341674
710.176	17.670668
710.36	17.70502358
710.544	17.7413281
710.728	17.74194273
710.912	17.75640407
711.095	17.64706805
711.279	17.57484447
711.463	17.51538514
711.647	17.51270629
711.83	17.54125006
712.014	17.48035264
712.198	17.59093631
712.382	17.50024368
712.565	17.44156507
712.749	17.49373016
712.933	17.47198519
713.116	17.39683422
713.3	17.43058293
713.483	17.44779431
713.667	17.36087671
713.851	17.45871761
714.034	17.29400225
714.218	17.2597146
714.401	17.0535147
714.585	17.12736574
714.768	17.1175618
714.952	17.12112689
715.135	17.19994898
715.319	17.37117516
715.502	17.45069716
715.686	17.44380523
715.869	17.45154769
716.052	17.35357728
716.236	17.32664834
716.419	17.5044966
716.602	17.83128066
716.786	17.91357268
716.969	17.98393366
717.152	17.84294084
717.336	18.10672669
717.519	17.8477797
717.702	17.29587547
717.885	17.25407119
718.069	17.20158179
718.252	17.83544487
718.435	18.33468993
718.618	18.04290888
718.801	18.80668066
718.985	18.99373314
719.168	17.82314894
719.351	16.95831522
719.534	16.90707402
719.717	16.84136877
719.9	16.91290353
720.083	17.84293606
720.266	17.86892215
720.449	17.32595293
720.632	17.2363625
720.815	17.64069788
720.998	17.67438784
721.181	17.36150187
721.364	17.86043599
721.547	19.28057554
721.73	19.12631975
721.913	19.96934451
722.096	18.50893136
722.279	17.7099746
722.461	17.96722772
722.644	18.21790184
722.827	17.91393739
723.01	19.01506052
723.193	20.1323269
723.376	20.75404488
723.558	22.44347646
723.741	21.87067281
723.924	20.98790967
724.107	21.54651097
724.289	19.80413493
724.472	20.97317031
724.655	20.73173042
724.837	20.45267568
725.02	19.83618032
725.203	19.79298252
725.385	19.16583726
725.568	19.40553853
725.75	18.23232804
725.933	19.96180825
726.115	19.19655612
726.298	18.76430206
726.481	18.74118306
726.663	19.28759637
726.845	18.98471848
727.028	19.2009119
727.21	18.07127307
727.393	17.01666174
727.575	18.40103803
727.758	17.80908113
727.94	17.52036421
728.122	18.06352693
728.305	17.99297773
728.487	18.44425274
728.67	18.09301248
728.852	18.16092443
729.034	18.20360819
729.216	18.52351292
729.399	18.35357043
729.581	18.38908695
729.763	16.65569873
729.945	17.49400963
730.128	17.24836364
730.31	16.5476473
730.492	16.16105311
730.674	16.3032888
730.856	16.27334774
731.039	15.47549749
731.221	14.85588054
731.403	14.07147214
731.585	12.82501534
731.767	12.14209636
731.949	13.51962362
732.131	12.92436333
732.313	13.14839828
732.495	13.14901271
732.677	12.84143601
732.859	13.38190261
733.041	13.30829621
733.223	12.71768973
733.405	12.63271983
733.587	13.75428194
733.769	13.42119366
733.951	13.25284676
734.132	13.95924844
734.314	13.03013339
734.496	12.19848247
734.678	12.80810785
734.86	14.11446323
735.042	14.50637758
735.223	14.14370917
735.405	16.30869363
735.587	15.95205848
735.769	14.88154322
735.95	15.97292849
736.132	14.97998442
736.314	16.45621913
736.495	17.62654889
736.677	17.56047203
736.859	17.12407443
737.04	17.96835652
737.222	18.46540534
737.403	18.52993337
737.585	18.63273299
737.767	19.48107188
737.948	19.50043008
738.13	19.65263704
738.311	20.31944238
738.493	20.29343526
738.674	20.42591332
738.856	19.86384594
739.037	19.87821581
739.219	19.85891859
739.4	20.28480857
739.581	22.05708166
739.763	21.57837274
739.944	21.83569796
740.125	21.60215141
740.307	20.75033686
740.488	21.16056485
740.669	20.84700122
740.851	20.18947195
741.032	20.26586323
741.213	19.04873203
741.395	18.93377069
741.576	18.86032986
741.757	17.74634801
741.938	18.20367921
742.119	19.45103124
742.301	19.37477713
742.482	18.96053733
742.663	19.51261458
742.844	20.27882954
743.025	19.948577
743.206	19.88465975
743.387	18.19820794
743.568	18.45249896
743.749	19.0319727
743.93	18.09168855
744.111	17.34312589
744.292	16.83013452
744.473	17.06268723
744.654	17.63323029
744.835	17.3242461
745.016	18.93145124
745.197	18.52365884
745.378	19.13492576
745.559	20.10866521
745.74	20.48461871
745.921	20.47887055
746.102	19.94721329
746.282	20.57848809
746.463	20.76879394
746.644	19.72042036
746.825	19.55721783
747.006	20.07533791
747.186	20.62678524
747.367	19.91566389
747.548	20.87642166
747.728	19.62476625
747.909	21.0436484
748.09	20.03206841
748.27	19.31528287
748.451	19.48784441
748.632	20.28067588
748.812	18.58163826
748.993	20.0460778
749.173	19.10649186
749.354	18.94413446
749.535	19.56859828
749.715	19.03490713
749.896	18.53463001
750.076	18.0584388
750.257	17.97414278
750.437	18.18918736
750.618	18.81471299
750.798	20.02944861
750.978	20.15714254
751.159	19.43463672
751.339	18.14183617
751.52	20.52551993
751.7	20.9108791
751.88	21.31299821
752.061	22.23078405
752.241	21.48824558
752.421	20.54147341
752.601	22.92335495
752.782	22.8505506
752.962	23.45961131
753.142	24.1411913
753.322	23.33326378
753.503	23.76464224
753.683	24.27499111
753.863	24.11973681
754.043	25.40180158
754.223	26.47707463
754.403	28.06773956
754.583	27.34893245
754.764	27.14910674
754.944	28.29454838
755.124	28.49444555
755.304	29.27274752
755.484	29.26729894
755.664	30.80390684
755.844	32.21890048
756.024	33.83645174
756.204	33.73260567
756.384	31.41612926
756.564	31.38419921
756.743	31.4233264
756.923	31.31040191
757.103	31.36437806
757.283	31.58110357
757.463	31.75841492
757.643	30.67074286
757.823	31.56440169
758.002	30.82323752
758.182	29.96145155
758.362	28.3564594
758.542	28.76516966
758.721	27.75623118
758.901	27.21435671
759.081	25.06585558
759.261	25.52244954
759.44	25.53507975
759.62	23.60819254
759.8	22.9545008
759.979	24.57036564
760.159	26.46177961
760.338	27.35872891
760.518	27.3752919
760.698	26.80166766
760.877	27.62754151
761.057	25.48455956
761.236	26.71113772
761.416	30.32713647
761.595	28.82585943
761.775	29.13749528
761.954	28.61314721
762.133	30.90382354
762.313	32.1849106
762.492	33.37112952
762.672	33.07281682
762.851	34.1702316
763.03	33.24716066
763.21	32.65294438
763.389	32.95067419
763.568	33.95039186
763.748	34.15652959
763.927	35.5012717
764.106	35.60393063
764.286	34.53922633
764.465	34.55222002
764.644	33.63418067
764.823	34.76489466
765.002	34.90610787
765.182	32.69492703
765.361	32.82807366
765.54	33.05362203
765.719	32.59555142
765.898	31.42770969
766.077	30.08993832
766.256	29.76387794
766.435	32.05614262
766.614	32.20306979
766.793	34.41567118
766.972	35.66944754
767.151	34.80923347
767.33	33.61509314
767.509	33.63117722
767.688	31.57667503
767.867	31.07841281
768.046	32.22449359
768.225	32.72356086
768.404	34.2813139
768.583	33.93230476
768.762	33.77076967
768.94	34.9238734
769.119	36.64990941
769.298	36.74181221
769.477	37.51894961
769.656	38.54362192
769.834	38.91355717
770.013	39.83170425
770.192	39.2145805
770.37	39.81269457
770.549	37.7204742
770.728	36.71079562
770.906	37.15310052
771.085	38.51657333
771.264	38.05148558
771.442	38.71802318
771.621	39.01733344
771.799	40.32433292
771.978	40.09048108
772.157	39.78366341
772.335	38.7881035
772.514	39.41438366
772.692	40.0499742
772.871	38.08973618
773.049	39.00130097
773.228	38.93274653
773.406	36.99525424
773.584	37.3471081
773.763	36.79377176
773.941	38.64810916
774.119	37.20075685
774.298	38.32054905
774.476	38.9431049
774.655	38.93646521
774.833	38.96232924
775.011	38.77191511
775.189	37.65455119
775.368	37.71633296
775.546	36.7625033
775.724	36.66000753
775.902	37.365868
776.08	39.22144034
776.259	38.63426821
776.437	37.5684327
776.615	39.08706982
776.793	37.09594818
776.971	36.59516174
777.149	38.3313904
777.327	39.50899416
777.505	37.4175276
777.683	34.22449316
777.861	35.01729209
778.04	35.30881241
778.218	34.4570513
778.395	34.26828068
778.573	32.62300931
778.751	32.27152685
778.929	34.03221102
779.107	33.33660484
779.285	33.16466304
779.463	34.04833737
779.641	33.35418656
779.819	33.13543478
779.997	32.92021434
780.174	35.00775092
780.352	34.45074439
780.53	36.12068682
780.708	35.79126675
780.886	35.96942959
781.063	34.6972072
781.241	38.12808199
781.419	39.22524455
781.596	39.40883405
781.774	37.89129148
781.952	39.48826073
782.129	40.87575418
782.307	41.23642065
782.485	42.32926059
782.662	40.93076483
782.84	42.76948014
783.017	44.28023867
783.195	44.1773399
783.372	46.58045162
783.55	47.15832482
783.727	44.89964143
783.905	41.48028689
784.082	40.98040068
784.26	39.16439763
784.437	41.44436922
784.615	39.69695587
784.792	41.45202446
784.969	39.2448684
785.147	37.41609891
785.324	39.27981995
785.501	38.38085389
785.679	38.22957683
785.856	37.41609891
786.033	39.48906902
786.211	39.7317183
786.388	42.2960425
786.565	39.03697334
786.742	41.77590277
786.92	43.35621033
787.097	43.57318111
787.274	42.90490151
787.451	47.67896099
787.628	48.22232573
787.805	52.34257189
787.982	53.63054061
788.16	53.89296302
788.337	57.26375176
788.514	55.29322163
788.691	59.31104874
788.868	57.84248842
789.045	57.80110207
789.222	60.95062598
789.399	60.02265006
789.576	62.1589683
789.753	59.40150924
789.93	60.92939666
790.106	57.1587631
790.283	60.9871266
790.46	58.28788713
790.637	56.00469231
790.814	54.90933103
790.991	53.71613099
791.168	53.39366516
791.344	55.22136547
791.521	50.38071732
791.698	53.04927631
791.875	50.75460551
792.051	52.6602407
792.228	53.2346106
792.405	47.89326583
792.581	49.01039742
792.758	49.71958698
792.935	49.80685037
793.111	50.19772996
793.288	49.94944388
793.465	53.15553636
793.641	53.23165922
793.818	57.88380638
793.994	55.36784153
794.171	57.09015706
794.347	59.91396616
794.524	58.67514928
794.7	60.02754062
794.877	58.89069234
795.053	57.33459043
795.23	60.29831458
795.406	59.71760345
795.583	62.19722702
795.759	59.05826893
795.935	60.59405941
796.112	61.84840963
796.288	67.31819488
796.464	67.81323945
796.641	69.87153868
796.817	68.30974188
796.993	68.81372931
797.169	66.38083499
797.346	66.3353476
797.522	66.71043274
797.698	66.23929378
797.874	63.39919334
798.051	60.82355877
798.227	61.52077188
798.403	63.80399091
798.579	64.89092084
798.755	65.93005681
798.931	64.44802662
799.107	68.67588421
799.283	67.79230026
799.459	70.85551631
799.635	71.91667995
799.811	72.07273107
799.987	67.01089482
800.163	63.91080792
800.339	62.30615692
800.515	64.77649231
800.691	63.71850272
800.867	65.63794179
801.043	64.59743547
801.219	63.13749377
801.395	65.20735964
801.571	66.10019472
801.746	69.13356309
801.922	67.85609484
802.098	66.22871845
802.274	67.61208196
802.45	69.13515498
802.625	69.44736184
802.801	66.05424745
802.977	62.83590882
803.152	60.66546525
803.328	59.54147282
803.504	60.45002703
803.679	62.17353272
803.855	66.29498648
804.031	65.36911112
804.206	61.27140694
804.382	62.17011038
804.557	62.2620637
804.733	64.25854052
804.909	65.54118866
805.084	64.26340546
805.26	62.98742022
805.435	63.06732154
805.61	64.52670504
805.786	63.92127416
805.961	61.34819991
806.137	61.073638
806.312	61.54400288
806.488	60.99267564
806.663	64.54210868
806.838	63.74144022
807.014	65.04220853
807.189	62.31780848
807.364	63.34802189
807.54	59.78129968
807.715	62.03588027
807.89	68.28683181
808.065	69.38476818
808.241	70.11905397
808.416	68.21780578
808.591	68.65268956
808.766	74.88294121
808.941	77.39482103
809.116	79.83663211
809.291	77.34289924
809.467	82.51163418
809.642	85.88031823
809.817	84.11809445
809.992	88.1854931
810.167	84.74215843
810.342	87.50669421
810.517	88.04557001
810.692	86.58527102
810.867	87.84960321
811.042	84.13486476
811.217	82.62259297
811.392	82.73767811
811.567	78.35590402
811.741	75.00584158
811.916	74.04188068
812.091	75.13605718
812.266	70.8281315
812.441	61.54241205
812.616	56.55686762
812.79	54.43266994
812.965	54.23053607
813.14	50.73633414
813.315	50.79775765
813.489	54.81507026
813.664	50.51406711
813.839	54.33943674
814.013	48.40880764
814.188	42.7653606
814.363	40.88358422
814.537	45.23705197
814.712	45.47099724
814.887	46.44420663
815.061	43.87704015
815.236	46.94979122
815.41	45.0477519
815.585	39.2186007
815.759	33.99176085
815.934	33.54772843
816.108	34.50654225
816.283	40.79643265
816.457	38.87710795
816.631	42.7205101
816.806	41.29358262
816.98	34.9372995
817.155	29.55203033
817.329	25.44099923
817.503	26.49328682
817.678	24.80376766
817.852	33.82338234
818.026	27.81616101
818.201	26.6574175
818.375	31.21409795
818.549	37.98090557
818.723	33.70160616
818.897	32.19422813
819.072	30.99990801
819.246	40.26278742
819.42	42.92898103
819.594	48.12017313
819.768	51.0634663
819.942	47.72295231
820.116	47.60980345
820.29	47.98774095
820.465	46.90448792
820.639	48.46148031
820.813	49.75293163
820.987	49.78114103
821.161	47.25992224
821.335	49.74340441
821.509	50.21899907
821.682	56.96969697
821.856	59.61301544
822.03	53.80955762
822.204	54.34370391
822.378	55.88214463
822.552	52.0906801
822.726	56.6969147
822.9	51.90370741
823.073	51.49193843
823.247	44.9973531
823.421	43.18366743
823.595	45.36250092
823.768	45.52727273
823.942	44.04490588
824.116	49.09605004
824.289	54.68418822
824.463	56.2796952
824.637	56.74485486
824.81	55.4539694
824.984	54.4799469
825.158	50.51034741
825.331	50.23645936
825.505	44.61180846
825.678	47.9976615
825.852	45.09407888
826.025	41.95729155
826.199	47.8246647
826.372	43.86905441
826.546	51.37011326
826.719	49.92969449
826.893	56.58869167
827.066	56.18309339
827.24	54.09558536
827.413	48.65845755
827.586	44.14194299
827.76	36.38913681
827.933	32.11517165
828.106	26.92449809
828.28	31.77880622
828.453	34.82132114
828.626	35.82483503
828.799	40.80367109
828.973	39.69724651
829.146	50.9833396
829.319	49.40824717
829.492	42.60051326
829.665	44.88027915
829.839	45.23667581
830.012	47.05751967
830.185	42.41187805
830.358	45.50463017
830.531	45.74098478
830.704	49.51893801
830.877	50.00591646
831.05	52.86631377
831.223	58.06798334
831.396	61.96134918
831.569	59.42926533
831.742	55.70291777
831.915	53.89360959
832.088	55.05426965
832.261	51.5849007
832.434	47.2394974
832.607	50.77407864
832.779	45.47410701
832.952	52.58041458
833.125	55.80314422
833.298	59.16005721
833.471	64.79395786
833.643	54.24672055
833.816	50.64885006
833.989	49.68392737
834.162	51.78899731
834.334	45.43946932
834.507	46.10315549
834.68	50.62477687
834.852	55.94517419
835.025	55.52837003
835.198	62.09448625
835.37	69.33297544
835.543	65.04256713
835.715	65.49797305
835.888	68.31716293
836.061	76.84599785
836.233	75.326509
836.406	72.62135922
836.578	66.89615605
836.751	66.59041519
836.923	65.50565991
837.095	58.52967684
837.268	66.64954411
837.44	65.27350953
837.613	62.23636149
837.785	61.07070466
837.957	65.56370914
838.13	66.05479071
838.302	60.97390819
838.474	58.51905104
838.647	60.07490637
838.819	59.85755417
838.991	64.5045045
839.163	70.0982686
839.336	69.14188293
839.508	74.15055378
839.68	66.66666667
839.852	59.61236249
840.024	59.29389005
840.196	65.26516961
840.368	67.69733908
840.541	60.48237477
840.713	58.21680564
840.885	61.2925263
841.057	63.69686269
841.229	69.15319796
841.401	68.21058301
841.573	69.41856351
841.745	72.85628382
841.917	76.1255116
842.089	78.44731978
842.261	80.1596498
842.432	81.86528497
842.604	74.60254894
842.776	75.31669866
842.948	76.61320403
843.12	76.93923087
843.292	84.41043858
843.464	84.28860418
843.635	87.49143718
843.807	86.39539663
843.979	86.54457394
844.151	102.84930672
844.322	115.07313318
844.494	110.93728174
844.666	109.12445012
844.837	102.51746408
845.009	100.15087094
845.181	99.23266252
845.352	95.46279492
845.524	94.90693984
845.695	83.40013822
845.867	75.93119328
846.039	82.98976301
846.21	87.85843028
846.382	81.81688737
846.553	79.34542238
846.725	74.59091504
846.896	70.14707831
847.068	70.26602018
847.239	61.38613861
847.41	61.61986162
847.582	62.95279194
847.753	53.64299934
847.925	44.84585088
848.096	44.37742352
848.267	45.76294849
848.439	51.80447693
848.61	56.23304298
848.781	60.36683786
848.952	55.45467244
849.124	65.08710801
849.295	72.47988296
849.466	74.57468394
849.637	61.1965812
849.808	61.84045663
849.98	67.73521398
850.151	66.17196322
850.322	66.54552063
850.493	63.39098109
850.664	72.77496066
850.835	92.20597075
851.006	87.00959024
851.177	90.2673423
851.348	92.24062772
851.519	99.63861642
851.69	92.73824767
851.861	90.98936384
852.032	69.90465911
852.203	66.74752375
852.374	77.78015856
852.545	86.13886754
852.716	80.03021909
852.887	60.66777173
853.057	70.45206377
853.228	71.73957274
853.399	74.73616196
853.57	63.73067965
853.741	73.54241212
853.911	83.29657108
854.082	92.6387316
854.253	78.99534884
854.424	77.26365451
854.594	82.42396099
854.765	77.0196974
854.936	114.51153968
855.106	93.60669005
855.277	98.48006883
855.447	99.9758162
855.618	120.91215341
855.789	125.08682875
855.959	109.71128609
856.13	105.98459411
856.3	88.3414161
856.471	109.15924827
856.641	102.17988643
856.812	115.93068753
856.982	122.54845519
857.153	117.74603796
857.323	104.67461045
857.493	97.43787324
857.664	96.78925861
857.834	95.05091167
858.004	92.94831555
858.175	87.39249004
858.345	89.03327427
858.515	82.6483233
858.686	76.0042061
858.856	79.07518943
859.026	90.33295063
859.196	90.13555787
859.367	85.95077325
859.537	73.69319394
859.707	90.83987628
859.877	103.25222838
860.047	88.03575056
860.217	73.3345501
860.387	66.22214424
860.558	62.30636833
860.728	65.98954444
860.898	65.32219946
861.068	63.29603536
861.238	55.56575325
861.408	59.08672194
861.578	60.57628469
861.748	61.23963875
861.918	58.6983588
862.088	53.47015337
862.257	61.48254213
862.427	59.94142532
862.597	61.93562562
862.767	57.04265188
862.937	58.93026691
863.107	63.80409259
863.277	55.44663509
863.446	52.99632135
863.616	55.24703428
863.786	59.69552514
863.956	51.37208113
864.125	45.4999076
864.295	36.10094394
864.465	37.00273627
864.634	45.17806083
864.804	57.56707476
864.974	47.7224736
865.143	20.23372287
865.313	17.4488189
865.482	27.64227642
865.652	25.47721075
865.822	30.95882176
865.991	30.79481211
866.161	28.86211513
866.33	29.64838256
866.5	35.28155858
866.669	39.4818361
866.838	33.43267407
867.008	31.74218561
867.177	17.15428857
867.347	23.34876919
867.516	33.17829457
867.685	31.39013453
867.855	42.86020124
868.024	34.61896777
868.193	24.74980143
868.363	21.84442662
868.532	32.34399884
868.701	44.16105459
868.87	45.41277135
869.04	42.98707516
869.209	34.09469067
869.378	27.24003127
869.547	31.51146017
869.716	24.6244172
869.885	25.3611557
870.055	14.97348887
870.224	12.52356021
870.393	14.25680234
870.562	9.99345407
870.731	27.12989599
870.9	33.71483996
871.069	31.78951946
871.238	25.40964142
871.407	20.54550089
871.576	36.56397571
871.745	48.27586207
871.914	48.79214229
872.083	48.85706417
872.251	36.41400151
872.42	39.06007537
872.589	37.77509069
872.758	36.93769209
872.927	51.87044941
873.096	52.95143213
873.264	55.05011565
873.433	52.40949413
873.602	58.97494829
873.771	56.86900958
873.939	53.76184284
874.108	65.85597568
874.277	55.69272977
874.445	49.72742356
874.614	57.86073223
874.783	64.69157639
874.951	74.83323226
875.12	81.45356662
875.288	76.5379494
875.457	94.71611421
875.625	110.1424979
875.794	121.97981114
875.962	131.47813516
876.131	133.64519611
876.299	125.87287377
876.468	127.48924909
876.636	94.09295352
876.805	88.57225938
876.973	95.16476748
877.141	100.89790489
877.31	91.3944503
877.478	167.36152472
877.647	205.52727273
877.815	200.7523511
877.983	173.86421644
878.151	163.20238687
878.32	168.39113132
878.488	149.57648231
878.656	130.54613936
878.824	138.27075439
878.992	127.52020417
879.161	111.80584122
879.329	101.08733778
879.497	100.69065794
879.665	105.90233546
879.833	97.82318969
880.001	152.8468324
880.169	278.81040892
880.337	174.169279
880.505	212.09372638
880.673	115.92111592
880.841	106.31202858
881.009	70.49723757
881.177	63.30605565
881.345	70.43127521
881.513	77.22657383
881.681	71.72656446
881.849	68.59023032
882.017	77.0333609
882.185	77.96186308
882.352	57.48459587
882.52	61.38064874
882.688	50.33492823
882.856	42.28439573
883.024	52.87356322
883.191	50.12139196
883.359	56.851791
883.527	61.55084518
883.694	64.87446107
883.862	72.77502189
884.03	69.04822659
884.197	85.69729408
884.365	78.39230505
884.533	96.8496265
884.7	96.93420599
884.868	92.708677
885.035	89.71643321
885.203	82.12905144
885.37	96.66666667
885.538	82.17358162
885.705	81.27739512
885.873	91.00299556
886.04	94.41727791
886.208	91.65848871
886.375	117.27407407
886.542	111.8632117
886.71	115.81027668
886.877	106.1083596
