Data from gv_c_Reflection_00001.txt Node
Date: Wed Nov 22 13:38:31 AEST 2023
User: uqkchene_local
Spectrometer: USB4E02642
Trigger mode: 4
Integration Time (sec): 2.350000E-1
Scans to average: 10
Electric dark correction enabled: true
Nonlinearity correction enabled: false
Boxcar width: 10
XAxis mode: Wavelengths
Number of Pixels in Spectrum: 3648
>>>>>Begin Spectral Data<<<<<
179.217	-99.78461538
179.432	-46.85314685
179.647	-0.62911923
179.862	23.77866401
180.077	16.28571429
180.293	23.80546075
180.508	30.51313378
180.723	62.85988484
180.938	59.16284881
181.153	78.20401046
181.368	143.62880886
181.583	392.3580786
181.798	121249.99999858
182.013	-126.00554785
182.228	-68.16593886
182.443	-47.88445891
182.658	-63.23622546
182.873	-23.33639284
183.088	-17.54836163
183.303	-13.83200278
183.518	-23.81468857
183.733	-24.89421721
183.948	-21.10342841
184.162	-23.21063395
184.377	-18.75506346
184.592	-19.99734255
184.807	-19.27810651
185.022	-22.6053189
185.237	-13.66191528
185.452	-17.06231454
185.667	-7.66032157
185.882	-14.44878049
186.096	-4.66642026
186.311	-2.307973
186.526	-18.13163924
186.741	-24.86863148
186.956	-31.01574629
187.17	-28.54307728
187.385	-38.95453378
187.6	-33.33752199
187.815	-42.14125839
188.03	-43.16802954
188.244	-50.18387182
188.459	-39.34289128
188.674	-21.2609345
188.889	-19.64547934
189.103	-26.63237455
189.318	-22.95597484
189.533	-14.61003693
189.747	-12.67434138
189.962	-9.09582522
190.177	-19.96019668
190.391	-16.62078458
190.606	-11.97377502
190.821	-16.02848471
191.035	-10.09964708
191.25	0.02878526
191.465	7.48783565
191.679	5.80010824
191.894	-0.70032855
192.109	-3.66210046
192.323	-3.62981192
192.538	-1.21623889
192.752	6.80434425
192.967	3.23416346
193.181	3.76025127
193.396	2.40426648
193.611	11.10828673
193.825	14.27988909
194.04	6.82812247
194.254	8.94736842
194.469	5.49588857
194.683	7.45478247
194.898	11.18778105
195.112	-1.45439606
195.327	6.17293348
195.541	8.28750982
195.756	1.48060174
195.97	-1.51713958
196.184	-0.14384837
196.399	5.82208896
196.613	8.15624522
196.828	5.75639147
197.042	3.17039822
197.257	3.16045381
197.471	5.66579634
197.685	0.28930402
197.9	-5.58240696
198.114	-14.92323266
198.328	-22.26582941
198.543	-19.36613396
198.757	-19.30342385
198.971	-23.94676538
199.186	-30.35553959
199.4	-32.07319339
199.614	-22.82154206
199.829	-27.99255187
200.043	-31.40990245
200.257	-29.59733956
200.471	-27.85068275
200.686	-28.29240152
200.9	-29.91915926
201.114	-24.7355124
201.328	-18.60089272
201.543	-18.98057521
201.757	-21.90469009
201.971	-22.09065814
202.185	-22.357364
202.399	-13.91424019
202.614	-5.77834982
202.828	-3.96513304
203.042	-3.61240701
203.256	0.21250759
203.47	3.43355382
203.684	6.08809768
203.899	6.86933154
204.113	7.44930254
204.327	4.74223205
204.541	8.65121871
204.755	13.80341416
204.969	16.63213509
205.183	20.82479784
205.397	20.75278108
205.611	18.42961758
205.825	16.20555619
206.039	15.91189329
206.253	17.26882692
206.467	17.6297238
206.681	17.74155584
206.895	14.60343315
207.109	11.43975363
207.323	11.28950374
207.537	9.59892707
207.751	8.55562785
207.965	9.51513629
208.179	12.05770988
208.393	10.77568423
208.607	10.63237888
208.821	14.23532544
209.035	13.83465733
209.249	12.9504358
209.463	12.95160645
209.677	6.66108894
209.891	5.66600398
210.104	5.26539536
210.318	1.30849555
210.532	1.10622331
210.746	-1.34708897
210.96	-5.93522712
211.174	-5.81153195
211.387	1.14935612
211.601	4.42815249
211.815	3.65679629
212.029	6.85200619
212.243	6.77857059
212.456	6.20017172
212.67	4.68695551
212.884	5.11291257
213.098	3.99745459
213.311	3.67483296
213.525	0.18458973
213.739	-6.49440463
213.953	-9.68833823
214.166	-9.44064957
214.38	-4.65436684
214.594	-2.30641527
214.807	1.19622864
215.021	1.20212637
215.235	1.94067895
215.448	5.67688022
215.662	5.50474448
215.876	3.29017069
216.089	3.03560652
216.303	1.2010413
216.516	3.74084304
216.73	2.13538462
216.944	-1.12647515
217.157	-3.73042299
217.371	-2.9629188
217.584	-1.46395093
217.798	-0.53479011
218.011	2.06900571
218.225	3.00199742
218.439	6.57909573
218.652	9.14135187
218.866	6.24216167
219.079	8.3495479
219.293	5.77322973
219.506	7.03854827
219.719	8.96452541
219.933	7.03283774
220.146	7.06002362
220.36	5.07308226
220.573	-0.0054401
220.787	4.33819557
221	-2.00958501
221.214	-5.16661057
221.427	-4.90398988
221.64	-4.54545455
221.854	-9.18042813
222.067	-8.66682885
222.28	-15.1133659
222.494	-18.13159528
222.707	-11.95791187
222.92	-13.68766555
223.134	-10.20620818
223.347	-7.20519254
223.56	-12.50693905
223.774	-8.96547993
223.987	-8.06950603
224.2	-8.95296694
224.414	-5.32614278
224.627	-2.90668787
224.84	-0.79136691
225.053	-0.94286518
225.267	-3.88309923
225.48	-0.92584543
225.693	1.8030118
225.906	2.7327235
226.119	4.76763697
226.333	7.46755476
226.546	8.20386758
226.759	11.81919574
226.972	13.22045034
227.185	13.19348023
227.398	13.63091312
227.612	10.06777243
227.825	9.63984897
228.038	10.33911628
228.251	10.03836668
228.464	9.55353765
228.677	9.33203393
228.89	7.57873507
229.103	6.83275279
229.316	7.00897506
229.529	7.91310167
229.743	8.4032204
229.956	6.29375625
230.169	7.56339126
230.382	6.28886569
230.595	5.64363412
230.808	2.93887997
231.021	1.38607459
231.234	1.13689095
231.447	0.64026022
231.66	-0.5576946
231.872	-2.4355635
232.085	-1.14550375
232.298	-1.88831081
232.511	-2.95909008
232.724	-4.04825152
232.937	-2.81418931
233.15	-2.71238833
233.363	-2.38594308
233.576	-2.86602101
233.789	-2.822862
234.002	-2.34020105
234.214	-0.86362751
234.427	0.33196667
234.64	-0.99884304
234.853	0.23725514
235.066	0.31622675
235.279	1.90326815
235.491	2.29481018
235.704	1.09025615
235.917	0.85407606
236.13	1.19406326
236.342	1.89258108
236.555	1.61793487
236.768	1.80067517
236.981	1.9668448
237.193	2.15738878
237.406	1.74286311
237.619	1.81197235
237.832	1.92484804
238.044	1.71989156
238.257	1.83455521
238.47	1.76197056
238.682	1.46297041
238.895	1.38969333
239.108	1.53235042
239.32	1.53340749
239.533	1.87820016
239.746	1.93885801
239.958	1.89068293
240.171	1.94791427
240.383	1.87692238
240.596	1.67337757
240.808	1.64088102
241.021	1.75284382
241.234	1.93315381
241.446	2.06542102
241.659	2.06633358
241.871	2.08173908
242.084	2.05825055
242.296	2.08272809
242.509	2.15392003
242.721	2.04045012
242.934	2.04868337
243.146	1.97097967
243.359	1.99123552
243.571	1.89898565
243.784	1.837028
243.996	1.67375844
244.208	1.50419344
244.421	1.46409371
244.633	1.51432195
244.846	1.57474978
245.058	1.59426836
245.27	1.58186598
245.483	1.59170515
245.695	1.48352889
245.907	1.35897989
246.12	1.33285089
246.332	1.33892217
246.544	1.28226496
246.757	1.28765484
246.969	1.31005472
247.181	1.312335
247.394	1.31176368
247.606	1.35132461
247.818	1.3373374
248.03	1.39541868
248.243	1.42900224
248.455	1.38753948
248.667	1.42824146
248.879	1.51804899
249.092	1.53124504
249.304	1.52308963
249.516	1.57725272
249.728	1.56993313
249.94	1.63864987
250.153	1.56595278
250.365	1.6807863
250.577	1.77990173
250.789	1.87046964
251.001	1.82532538
251.213	1.72282546
251.425	1.64327495
251.637	1.65501994
251.85	1.67275182
252.062	1.60999117
252.274	1.52802698
252.486	1.5604721
252.698	1.48089855
252.91	1.38825857
253.122	1.40666215
253.334	1.30111081
253.546	1.24301085
253.758	1.26014701
253.97	1.23890371
254.182	1.26438513
254.394	1.15612368
254.606	1.19643022
254.818	1.16112714
255.03	1.09026096
255.242	0.95178022
255.454	1.01658745
255.666	1.0005351
255.877	1.02455102
256.089	0.9957029
256.301	0.98600365
256.513	0.97157998
256.725	1.0009197
256.937	0.95935583
257.149	0.99652162
257.361	1.04007472
257.572	1.04464228
257.784	1.04810868
257.996	1.09124522
258.208	1.05213253
258.42	1.04963522
258.631	0.98407003
258.843	1.00214311
259.055	0.98989101
259.267	0.95622825
259.479	0.97944139
259.69	0.98524904
259.902	0.96372904
260.114	1.03087586
260.325	1.03205382
260.537	1.03297597
260.749	1.00888647
260.961	0.99546469
261.172	1.00581912
261.384	1.06043143
261.596	1.07101618
261.807	1.08467346
262.019	1.09327497
262.23	1.1012836
262.442	1.06028327
262.654	1.07584202
262.865	1.04768095
263.077	1.1246999
263.288	1.09595357
263.5	1.07110064
263.712	1.08566186
263.923	1.0317884
264.135	1.05673889
264.346	1.07821432
264.558	1.08940771
264.769	1.05922332
264.981	1.08369174
265.192	1.11315355
265.404	1.17347044
265.615	1.17609064
265.827	1.17661734
266.038	1.14201582
266.25	1.16240499
266.461	1.12337266
266.673	1.12626567
266.884	1.11779278
267.095	1.13991089
267.307	1.23013052
267.518	1.19921136
267.73	1.20902044
267.941	1.24055369
268.152	1.20847147
268.364	1.23497124
268.575	1.22319961
268.786	1.20657756
268.998	1.15983509
269.209	1.18414607
269.42	1.15952656
269.632	1.13327822
269.843	1.12208208
270.054	1.11155804
270.265	1.09912103
270.477	1.10053495
270.688	1.08872998
270.899	1.12840669
271.11	1.10806471
271.322	1.12429027
271.533	1.08304084
271.744	1.01563354
271.955	1.02967436
272.166	1.05291142
272.378	1.01047183
272.589	1.01528551
272.8	1.05445828
273.011	1.06733201
273.222	1.06844394
273.433	1.1165842
273.644	1.16661442
273.856	1.20292616
274.067	1.20292572
274.278	1.16953279
274.489	1.16589788
274.7	1.16749835
274.911	1.14389764
275.122	1.13997331
275.333	1.11041751
275.544	1.15348706
275.755	1.18579269
275.966	1.17284381
276.177	1.20360775
276.388	1.19660643
276.599	1.2103099
276.81	1.24174182
277.021	1.2163793
277.232	1.19391148
277.443	1.17325402
277.654	1.22695074
277.865	1.16018828
278.076	1.06824093
278.287	1.01361004
278.497	1.04824903
278.708	1.0741328
278.919	1.07748688
279.13	1.09286566
279.341	1.12738677
279.552	1.08985715
279.763	1.08017203
279.973	1.08309831
280.184	1.00542574
280.395	1.04379707
280.606	1.01775962
280.817	1.01816687
281.027	0.94408615
281.238	0.95765742
281.449	1.02420757
281.66	0.98388502
281.87	1.01195851
282.081	1.01126874
282.292	0.99409281
282.503	1.04552914
282.713	1.06323159
282.924	1.02368153
283.135	1.0271976
283.345	1.03422919
283.556	1.01315208
283.767	0.99341368
283.977	1.00226492
284.188	1.00863469
284.399	0.96533301
284.609	1.01454282
284.82	0.99479292
285.03	1.0220968
285.241	1.02875939
285.451	1.06800903
285.662	1.02920523
285.873	1.01036751
286.083	1.04516635
286.294	1.03649545
286.504	0.99290135
286.715	1.04144017
286.925	1.02326119
287.136	1.0101596
287.346	1.02574203
287.557	1.01817165
287.767	1.01932924
287.978	0.99950883
288.188	0.98727765
288.399	1.03655348
288.609	1.05165486
288.819	1.08445028
289.03	1.12845849
289.24	1.14338992
289.451	1.10111225
289.661	1.1166072
289.871	1.07548815
290.082	1.08265955
290.292	1.10219614
290.502	1.09117246
290.713	1.10552314
290.923	1.08041317
291.133	1.03621428
291.344	1.03158791
291.554	1.01888807
291.764	0.98975806
291.974	1.02434023
292.185	1.01209781
292.395	1.03768419
292.605	1.07419718
292.815	1.05541865
293.026	1.04613635
293.236	1.04652021
293.446	0.99682913
293.656	0.99021018
293.866	0.9785774
294.077	0.95971967
294.287	0.99645198
294.497	0.99770772
294.707	0.96494088
294.917	0.96359023
295.127	0.96813846
295.337	1.00750492
295.548	1.02884404
295.758	1.03629583
295.968	1.07225579
296.178	1.10476695
296.388	1.09872907
296.598	1.12473146
296.808	1.0958445
297.018	1.09189627
297.228	1.07341844
297.438	1.06223269
297.648	1.04635196
297.858	1.06366002
298.068	1.07533326
298.278	1.07540661
298.488	1.10660944
298.698	1.09423613
298.908	1.1390153
299.118	1.1681979
299.328	1.2045562
299.538	1.18545015
299.748	1.15737727
299.957	1.16289172
300.167	1.14536192
300.377	1.12276619
300.587	1.1114588
300.797	1.12795962
301.007	1.09136356
301.217	1.11486272
301.426	1.10138362
301.636	1.13415248
301.846	1.17216017
302.056	1.16345912
302.266	1.13107775
302.475	1.16930206
302.685	1.20128862
302.895	1.19238837
303.105	1.21004675
303.314	1.19415955
303.524	1.19197738
303.734	1.15851647
303.944	1.17251761
304.153	1.18287254
304.363	1.18777917
304.573	1.2100643
304.782	1.23227383
304.992	1.26651552
305.202	1.24491128
305.411	1.27301498
305.621	1.25942814
305.831	1.24837814
306.04	1.24205962
306.25	1.25253257
306.459	1.24250248
306.669	1.24657465
306.878	1.21207097
307.088	1.20214874
307.298	1.18325919
307.507	1.15586621
307.717	1.16789122
307.926	1.15917767
308.136	1.15692089
308.345	1.1515577
308.555	1.15355712
308.764	1.18340398
308.974	1.18988901
309.183	1.21934572
309.392	1.18200026
309.602	1.17554264
309.811	1.14099633
310.021	1.16545056
310.23	1.15285081
310.44	1.15767571
310.649	1.15157703
310.858	1.2012226
311.068	1.22172821
311.277	1.23105585
311.486	1.24138514
311.696	1.2322533
311.905	1.25129105
312.114	1.28661482
312.324	1.30370714
312.533	1.31254995
312.742	1.34719774
312.952	1.38109366
313.161	1.33728368
313.37	1.31055913
313.579	1.28990921
313.789	1.32805042
313.998	1.33686691
314.207	1.36257828
314.416	1.3499431
314.625	1.41390337
314.835	1.39164088
315.044	1.39036095
315.253	1.36074225
315.462	1.36694567
315.671	1.36522043
315.88	1.42872347
316.09	1.46792471
316.299	1.50621488
316.508	1.4284818
316.717	1.40358116
316.926	1.41483626
317.135	1.39401732
317.344	1.36826577
317.553	1.42293386
317.762	1.4209897
317.971	1.39866683
318.18	1.38654386
318.389	1.42819876
318.598	1.42201973
318.807	1.42589184
319.016	1.38952862
319.225	1.39421893
319.434	1.37643821
319.643	1.35058872
319.852	1.35688003
320.061	1.33815749
320.27	1.33283092
320.479	1.32117864
320.688	1.28997919
320.897	1.3174707
321.105	1.32652796
321.314	1.34070025
321.523	1.36277458
321.732	1.39011719
321.941	1.34882343
322.15	1.37436901
322.359	1.37568057
322.567	1.40038929
322.776	1.34375431
322.985	1.35334598
323.194	1.33612394
323.403	1.31318971
323.611	1.29031768
323.82	1.27121875
324.029	1.28753369
324.237	1.29872868
324.446	1.26851943
324.655	1.21117619
324.864	1.210636
325.072	1.25045349
325.281	1.24170864
325.49	1.25080228
325.698	1.23112832
325.907	1.2011126
326.116	1.16117079
326.324	1.21146575
326.533	1.20955397
326.741	1.22101536
326.95	1.20251807
327.159	1.24378996
327.367	1.21587995
327.576	1.26030859
327.784	1.31289152
327.993	1.32885798
328.201	1.36577567
328.41	1.40593664
328.618	1.39827851
328.827	1.46633372
329.035	1.50038026
329.244	1.51051163
329.452	1.5005126
329.661	1.50952476
329.869	1.55388312
330.078	1.59208152
330.286	1.64520696
330.495	1.70012376
330.703	1.63445983
330.911	1.63384283
331.12	1.64642896
331.328	1.67732595
331.537	1.66398443
331.745	1.70780974
331.953	1.69950052
332.162	1.71382938
332.37	1.74372871
332.578	1.7358409
332.787	1.73258277
332.995	1.76217434
333.203	1.78652455
333.411	1.78095273
333.62	1.7795084
333.828	1.78626343
334.036	1.80917579
334.244	1.81574529
334.453	1.79003865
334.661	1.77065366
334.869	1.75977501
335.077	1.80122396
335.285	1.81565925
335.494	1.82731276
335.702	1.84984787
335.91	1.88986666
336.118	1.88173772
336.326	1.89520721
336.534	1.89165849
336.742	1.92600872
336.951	1.97862494
337.159	1.95111834
337.367	1.94736826
337.575	1.94817396
337.783	1.97721873
337.991	2.00719579
338.199	1.95532858
338.407	1.95471922
338.615	1.92707247
338.823	1.960717
339.031	1.97101596
339.239	1.95446831
339.447	1.98225152
339.655	2.00831682
339.863	2.02168325
340.071	1.99360697
340.279	1.99680242
340.487	2.05295496
340.695	2.09319967
340.903	2.08802308
341.11	2.10214151
341.318	2.08215619
341.526	2.14523779
341.734	2.11018474
341.942	2.12684382
342.15	2.14517674
342.358	2.14996237
342.565	2.2054855
342.773	2.23634284
342.981	2.2804651
343.189	2.28861693
343.397	2.30169676
343.604	2.35613185
343.812	2.36522614
344.02	2.35522835
344.228	2.38683124
344.435	2.41082869
344.643	2.41125015
344.851	2.38681948
345.058	2.37533599
345.266	2.38615822
345.474	2.39155218
345.681	2.41750857
345.889	2.4279387
346.097	2.46972897
346.304	2.47505113
346.512	2.46758185
346.72	2.45770059
346.927	2.47247418
347.135	2.4955708
347.342	2.4868661
347.55	2.48152302
347.758	2.46455819
347.965	2.46507802
348.173	2.46694597
348.38	2.47617271
348.588	2.46893117
348.795	2.45218498
349.003	2.45407242
349.21	2.46327681
349.418	2.45074977
349.625	2.45793203
349.833	2.43442905
350.04	2.46310574
350.247	2.45969428
350.455	2.47766438
350.662	2.47923125
350.87	2.49899218
351.077	2.51212995
351.284	2.53665443
351.492	2.51789708
351.699	2.51186197
351.906	2.54237143
352.114	2.57009047
352.321	2.56447884
352.528	2.58132983
352.736	2.62820593
352.943	2.62985788
353.15	2.66824254
353.358	2.67935635
353.565	2.6893536
353.772	2.70807184
353.979	2.73451895
354.187	2.73880573
354.394	2.70419
354.601	2.70472693
354.808	2.69777623
355.015	2.69390288
355.223	2.71530502
355.43	2.74467721
355.637	2.71645314
355.844	2.74665819
356.051	2.78075985
356.258	2.76914101
356.465	2.76986324
356.673	2.76974502
356.88	2.77652995
357.087	2.75047891
357.294	2.76576581
357.501	2.77439798
357.708	2.76041527
357.915	2.77444731
358.122	2.77225337
358.329	2.77887368
358.536	2.79840212
358.743	2.81913147
358.95	2.82268274
359.157	2.83494064
359.364	2.8485652
359.571	2.84687207
359.778	2.81206799
359.985	2.81728015
360.192	2.80539041
360.399	2.78383063
360.606	2.78510251
360.812	2.78231983
361.019	2.82155338
361.226	2.7982562
361.433	2.80373689
361.64	2.78707529
361.847	2.7716409
362.054	2.77967282
362.26	2.77791409
362.467	2.77652396
362.674	2.76740866
362.881	2.75972295
363.088	2.73525821
363.294	2.74767918
363.501	2.75767652
363.708	2.72873479
363.915	2.72105076
364.121	2.73717767
364.328	2.73937213
364.535	2.73524489
364.741	2.74608722
364.948	2.74275134
365.155	2.73978605
365.361	2.68231572
365.568	2.68539164
365.775	2.66816494
365.981	2.67753213
366.188	2.70383264
366.395	2.73392933
366.601	2.73270094
366.808	2.75140034
367.014	2.75304753
367.221	2.74778233
367.427	2.76206925
367.634	2.77442343
367.84	2.75419541
368.047	2.75729524
368.254	2.73913148
368.46	2.7582427
368.667	2.785067
368.873	2.79001393
369.079	2.77588423
369.286	2.7677191
369.492	2.8114905
369.699	2.82410385
369.905	2.83912961
370.112	2.85600881
370.318	2.84363267
370.524	2.81002774
370.731	2.81202796
370.937	2.80494525
371.144	2.78121804
371.35	2.77165539
371.556	2.77889521
371.763	2.79993262
371.969	2.76240651
372.175	2.77951057
372.381	2.79284888
372.588	2.81343942
372.794	2.80403564
373	2.77774051
373.206	2.78772821
373.413	2.8108728
373.619	2.83393086
373.825	2.80429006
374.031	2.82129061
374.238	2.80985311
374.444	2.82835741
374.65	2.84879458
374.856	2.85065754
375.062	2.82746194
375.268	2.83886545
375.475	2.85616536
375.681	2.86014894
375.887	2.86269841
376.093	2.84928865
376.299	2.86686523
376.505	2.84619643
376.711	2.87077656
376.917	2.84369658
377.123	2.85353887
377.329	2.86299333
377.535	2.84975824
377.741	2.82805822
377.947	2.81417264
378.153	2.81587697
378.359	2.82627423
378.565	2.8301031
378.771	2.81697669
378.977	2.79558504
379.183	2.81348267
379.389	2.82479495
379.595	2.8156401
379.801	2.79878581
380.007	2.8193347
380.213	2.83954811
380.418	2.84221979
380.624	2.82279615
380.83	2.84286622
381.036	2.82507462
381.242	2.8318366
381.448	2.81769512
381.653	2.82656033
381.859	2.82016156
382.065	2.828739
382.271	2.83729837
382.476	2.83714413
382.682	2.82740308
382.888	2.83522545
383.094	2.84030899
383.299	2.88637359
383.505	2.88666636
383.711	2.89556509
383.916	2.90126744
384.122	2.93853687
384.328	2.93793033
384.533	2.91334244
384.739	2.92534541
384.945	2.96314535
385.15	2.93373225
385.356	2.94602348
385.562	2.96684124
385.767	2.99273489
385.973	3.02171978
386.178	3.0520487
386.384	3.06793502
386.589	3.06540188
386.795	3.08223544
387	3.0948918
387.206	3.10202684
387.411	3.10175861
387.617	3.07296218
387.822	3.06063589
388.028	3.04684484
388.233	3.08272107
388.439	3.08648626
388.644	3.09692787
388.85	3.12388283
389.055	3.12746241
389.26	3.1436383
389.466	3.17462624
389.671	3.17749674
389.877	3.18991732
390.082	3.18688049
390.287	3.16069264
390.493	3.15449421
390.698	3.15381074
390.903	3.16838734
391.109	3.17650548
391.314	3.19452611
391.519	3.21395531
391.724	3.21510003
391.93	3.22220003
392.135	3.2378122
392.34	3.25677223
392.545	3.25989154
392.751	3.26193641
392.956	3.26657537
393.161	3.26393412
393.366	3.26651776
393.571	3.24809576
393.776	3.25443787
393.982	3.26681719
394.187	3.27684039
394.392	3.27729688
394.597	3.3116615
394.802	3.31106265
395.007	3.32461121
395.212	3.32493972
395.417	3.32742659
395.622	3.32454999
395.827	3.31125811
396.032	3.32695768
396.237	3.34105787
396.442	3.35364177
396.647	3.34145524
396.852	3.32837388
397.057	3.3156618
397.262	3.32257689
397.467	3.35987137
397.672	3.40425499
397.877	3.46260388
398.082	3.55461801
398.287	3.63867853
398.492	3.71876401
398.697	3.82814693
398.902	3.91319896
399.107	4.02019846
399.311	4.12867188
399.516	4.25242738
399.721	4.36026715
399.926	4.47587183
400.131	4.59093627
400.336	4.70093869
400.54	4.80475584
400.745	4.914114
400.95	5.03447334
401.155	5.13205751
401.359	5.24418617
401.564	5.30712151
401.769	5.3632488
401.974	5.4107846
402.178	5.46466554
402.383	5.48725106
402.588	5.49200543
402.792	5.50168424
402.997	5.50060935
403.202	5.47482846
403.406	5.47686302
403.611	5.46023797
403.815	5.43636707
404.02	5.42148828
404.225	5.38719989
404.429	5.36190056
404.634	5.35273759
404.838	5.31415069
405.043	5.27645954
405.247	5.2441471
405.452	5.17881692
405.656	5.13078594
405.861	5.11617215
406.065	5.07850251
406.27	5.0271655
406.474	4.96132879
406.679	4.91817421
406.883	4.86595896
407.088	4.82448288
407.292	4.77324356
407.497	4.73250134
407.701	4.6806787
407.905	4.62092897
408.11	4.57068346
408.314	4.51053096
408.518	4.44510855
408.723	4.40345273
408.927	4.35734301
409.131	4.31723745
409.336	4.28656668
409.54	4.24202844
409.744	4.24891599
409.949	4.21133108
410.153	4.20243543
410.357	4.20605096
410.561	4.21667278
410.766	4.2320208
410.97	4.22019911
411.174	4.22130289
411.378	4.2315846
411.582	4.24355916
411.787	4.26606691
411.991	4.26730048
412.195	4.30067542
412.399	4.32427089
412.603	4.33648374
412.807	4.36707259
413.011	4.391375
413.215	4.40881751
413.419	4.45211599
413.624	4.46311104
413.828	4.47608699
414.032	4.50365449
414.236	4.54491472
414.44	4.55349458
414.644	4.56560752
414.848	4.56823548
415.052	4.5825348
415.256	4.59646801
415.46	4.61643966
415.664	4.62396362
415.868	4.62063671
416.072	4.63532535
416.275	4.66327819
416.479	4.66482268
416.683	4.67216393
416.887	4.69908347
417.091	4.71486837
417.295	4.72552137
417.499	4.74266545
417.703	4.73940201
417.906	4.75694933
418.11	4.77813348
418.314	4.77889434
418.518	4.79001282
418.722	4.80954741
418.925	4.82575194
419.129	4.84260885
419.333	4.85140278
419.537	4.86334469
419.74	4.88199476
419.944	4.90009874
420.148	4.92151264
420.352	4.93479665
420.555	4.93887446
420.759	4.9606352
420.963	4.98261145
421.166	4.99557035
421.37	5.0079772
421.573	5.01705494
421.777	5.02816348
421.981	5.05619273
422.184	5.08212146
422.388	5.10130019
422.591	5.12829723
422.795	5.15198936
422.999	5.17073063
423.202	5.19298713
423.406	5.22267669
423.609	5.24945454
423.813	5.27923576
424.016	5.29979336
424.22	5.32186039
424.423	5.35531076
424.627	5.39839522
424.83	5.43608603
425.033	5.46647232
425.237	5.49299104
425.44	5.52069978
425.644	5.55593213
425.847	5.59965341
426.05	5.63732068
426.254	5.66833749
426.457	5.69069961
426.66	5.73453771
426.864	5.76859724
427.067	5.80533364
427.27	5.83141389
427.474	5.86332398
427.677	5.88483237
427.88	5.92898725
428.084	5.96854883
428.287	6.04837051
428.49	6.1239565
428.693	6.21206183
428.896	6.319381
429.1	6.47884582
429.303	6.67662525
429.506	6.90302836
429.709	7.14370656
429.912	7.40673128
430.116	7.67226706
430.319	7.92781701
430.522	8.18869247
430.725	8.47643182
430.928	8.74608755
431.131	9.01865868
431.334	9.27843093
431.537	9.55722405
431.74	9.83119317
431.943	10.12438296
432.146	10.38109886
432.349	10.63448868
432.552	10.84781582
432.755	11.05160724
432.958	11.23134379
433.161	11.37400092
433.364	11.47630424
433.567	11.54015005
433.77	11.56745686
433.973	11.55805435
434.176	11.52489301
434.379	11.4712641
434.582	11.41782151
434.785	11.34980497
434.988	11.25391707
435.19	11.15584574
435.393	11.04922843
435.596	10.95838536
435.799	10.85839859
436.002	10.74647517
436.205	10.6126355
436.407	10.47990294
436.61	10.35338631
436.813	10.22704319
437.016	10.09388465
437.218	9.96049318
437.421	9.81575816
437.624	9.67786017
437.827	9.53121928
438.029	9.3808355
438.232	9.23001298
438.435	9.08674857
438.637	8.94888503
438.84	8.79482925
439.043	8.6618625
439.245	8.5326648
439.448	8.39933634
439.65	8.27848808
439.853	8.15088824
440.056	8.03754027
440.258	7.92615337
440.461	7.82399153
440.663	7.73909562
440.866	7.66210269
441.068	7.57754881
441.271	7.527669
441.473	7.47798969
441.676	7.44624231
441.878	7.41951964
442.081	7.40370739
442.283	7.39127419
442.486	7.38896222
442.688	7.37417407
442.89	7.3815435
443.093	7.3930305
443.295	7.40521787
443.498	7.41469321
443.7	7.43775203
443.902	7.46089721
444.105	7.47754095
444.307	7.47970903
444.509	7.50269493
444.712	7.51206923
444.914	7.53083409
445.116	7.5443728
445.319	7.57122799
445.521	7.593004
445.723	7.6164876
445.925	7.63800764
446.128	7.65900249
446.33	7.66842842
446.532	7.68983182
446.734	7.72998832
446.936	7.76299224
447.139	7.79799825
447.341	7.83339005
447.543	7.84797479
447.745	7.8799726
447.947	7.90287425
448.149	7.92581512
448.351	7.95467832
448.553	8.00511742
448.755	8.04251921
448.958	8.08450077
449.16	8.13116943
449.362	8.17042824
449.564	8.20486447
449.766	8.23336989
449.968	8.26399646
450.17	8.30099445
450.372	8.32920247
450.574	8.37373958
450.776	8.399172
450.978	8.42162744
451.179	8.454695
451.381	8.47884779
451.583	8.51207533
451.785	8.55683653
451.987	8.57684641
452.189	8.60816871
452.391	8.63478812
452.593	8.66827832
452.795	8.68145249
452.996	8.67688882
453.198	8.70480804
453.4	8.71095376
453.602	8.7295787
453.804	8.74120869
454.005	8.74102691
454.207	8.74024119
454.409	8.72443264
454.611	8.72631639
454.812	8.71049702
455.014	8.72215905
455.216	8.70860574
455.417	8.71515774
455.619	8.6993841
455.821	8.68660634
456.022	8.6795846
456.224	8.67867639
456.426	8.67644531
456.627	8.65989645
456.829	8.6586253
457.031	8.65108705
457.232	8.65565949
457.434	8.6553044
457.635	8.65551459
457.837	8.65670984
458.038	8.6506207
458.24	8.66657432
458.441	8.68932951
458.643	8.71832353
458.844	8.73791983
459.046	8.76824902
459.247	8.77781222
459.449	8.80715725
459.65	8.82878527
459.852	8.85847653
460.053	8.8852501
460.254	8.91780253
460.456	8.94932898
460.657	8.97442442
460.859	9.01271833
461.06	9.0314922
461.261	9.07337757
461.463	9.10777184
461.664	9.13690186
461.865	9.17205941
462.066	9.19714628
462.268	9.23693909
462.469	9.25453253
462.67	9.28588498
462.872	9.3135502
463.073	9.34477947
463.274	9.36492127
463.475	9.38619594
463.676	9.42419771
463.878	9.44754801
464.079	9.48231745
464.28	9.50709974
464.481	9.52818482
464.682	9.54869509
464.883	9.57263962
465.085	9.5937728
465.286	9.61704777
465.487	9.64265454
465.688	9.66793435
465.889	9.67942511
466.09	9.71849721
466.291	9.7439769
466.492	9.7624085
466.693	9.79134394
466.894	9.80395341
467.095	9.81702475
467.296	9.83431683
467.497	9.84912657
467.698	9.88518375
467.899	9.8891542
468.1	9.91313067
468.301	9.92509795
468.502	9.95151264
468.703	9.97523746
468.903	9.99881936
469.104	10.02097368
469.305	10.04181048
469.506	10.06886631
469.707	10.0805217
469.908	10.10964509
470.109	10.12587846
470.309	10.13966152
470.51	10.14944899
470.711	10.1787377
470.912	10.19513876
471.112	10.22252624
471.313	10.23670923
471.514	10.25483131
471.715	10.28376874
471.915	10.30193425
472.116	10.31451036
472.317	10.3268654
472.517	10.34259059
472.718	10.3589545
472.919	10.37101039
473.119	10.38681436
473.32	10.39574035
473.521	10.4240819
473.721	10.42998651
473.922	10.44239244
474.122	10.44878575
474.323	10.46713731
474.523	10.4658078
474.724	10.48007896
474.925	10.48931028
475.125	10.51535069
475.326	10.52687996
475.526	10.54225947
475.727	10.55381344
475.927	10.56961829
476.127	10.58437209
476.328	10.6144602
476.528	10.65402751
476.729	10.68667392
476.929	10.71067517
477.13	10.73846775
477.33	10.76240807
477.53	10.79485296
477.731	10.8099477
477.931	10.83262322
478.131	10.85050972
478.332	10.86618693
478.532	10.88356102
478.732	10.90031057
478.933	10.9181471
479.133	10.93738124
479.333	10.95893099
479.533	10.98923949
479.734	11.03707413
479.934	11.07857226
480.134	11.12539604
480.334	11.17466662
480.534	11.22467402
480.735	11.27086574
480.935	11.32343186
481.135	11.38815586
481.335	11.45395678
481.535	11.51990697
481.735	11.5876443
481.935	11.65509533
482.136	11.73661718
482.336	11.81682911
482.536	11.89942628
482.736	11.98751642
482.936	12.07539481
483.136	12.16345452
483.336	12.25281837
483.536	12.34398809
483.736	12.43014628
483.936	12.5068635
484.136	12.58849897
484.336	12.66591574
484.536	12.74779924
484.736	12.8226476
484.936	12.90046135
485.135	12.97573836
485.335	13.04120887
485.535	13.10335161
485.735	13.17194599
485.935	13.23712456
486.135	13.30355458
486.335	13.3571726
486.534	13.4208236
486.734	13.47587874
486.934	13.53050399
487.134	13.57738772
487.334	13.63002303
487.533	13.67595009
487.733	13.71534691
487.933	13.76208389
488.133	13.8019215
488.332	13.84167774
488.532	13.8753675
488.732	13.90324913
488.931	13.93642721
489.131	13.96425236
489.331	13.99000444
489.53	14.02219718
489.73	14.05503922
489.93	14.07908736
490.129	14.10308591
490.329	14.13246762
490.528	14.15891691
490.728	14.17989281
490.928	14.20003756
491.127	14.22113587
491.327	14.25036266
491.526	14.26650494
491.726	14.28340553
491.925	14.29883978
492.125	14.30773206
492.324	14.31922143
492.524	14.32472683
492.723	14.34024753
492.922	14.33432112
493.122	14.32549056
493.321	14.32127223
493.521	14.31724031
493.72	14.30721341
493.919	14.28887838
494.119	14.27346213
494.318	14.2567593
494.517	14.22756015
494.717	14.20338266
494.916	14.17762198
495.115	14.15341379
495.315	14.12653042
495.514	14.09552423
495.713	14.0670861
495.912	14.03930939
496.112	14.01391733
496.311	13.98611723
496.51	13.95354297
496.709	13.93237889
496.908	13.89698459
497.108	13.8767456
497.307	13.85129508
497.506	13.80439214
497.705	13.7579112
497.904	13.70341564
498.103	13.66812681
498.302	13.61454288
498.501	13.56632509
498.701	13.52349336
498.9	13.48509799
499.099	13.43076566
499.298	13.38674641
499.497	13.34195876
499.696	13.2954116
499.895	13.25270788
500.094	13.21222232
500.293	13.16120444
500.492	13.10014675
500.691	13.06997113
500.89	13.00480196
501.088	12.95282577
501.287	12.90650459
501.486	12.86558324
501.685	12.81769872
501.884	12.78099609
502.083	12.74575073
502.282	12.69465736
502.481	12.66669224
502.679	12.63615806
502.878	12.61055618
503.077	12.57044807
503.276	12.54092185
503.475	12.50234948
503.673	12.45927716
503.872	12.42972788
504.071	12.39972561
504.27	12.37048926
504.468	12.34610578
504.667	12.33763801
504.866	12.30428366
505.064	12.28914556
505.263	12.26522853
505.462	12.25139112
505.66	12.22729872
505.859	12.2206229
506.058	12.2147875
506.256	12.20478551
506.455	12.20049388
506.653	12.19131781
506.852	12.18309266
507.05	12.1851806
507.249	12.1958802
507.448	12.20038442
507.646	12.20450639
507.845	12.21925253
508.043	12.22404617
508.242	12.22364762
508.44	12.22739499
508.638	12.23963887
508.837	12.23796663
509.035	12.24686197
509.234	12.24920066
509.432	12.26496314
509.631	12.28221412
509.829	12.30028292
510.027	12.307416
510.226	12.31975332
510.424	12.32795346
510.622	12.35139803
510.821	12.36813925
511.019	12.38010523
511.217	12.38254557
511.415	12.38604
511.614	12.40102704
511.812	12.4216811
512.01	12.42849522
512.208	12.4560167
512.407	12.47728923
512.605	12.49644438
512.803	12.50646091
513.001	12.52496288
513.199	12.54154502
513.398	12.5674058
513.596	12.58257334
513.794	12.59253467
513.992	12.60056462
514.19	12.62126999
514.388	12.6240352
514.586	12.63901988
514.784	12.64315854
514.982	12.6575074
515.18	12.67015118
515.378	12.68190814
515.576	12.69541746
515.774	12.7041861
515.972	12.70727866
516.17	12.7224886
516.368	12.71659677
516.566	12.73480705
516.764	12.74883919
516.962	12.76869756
517.16	12.78079628
517.358	12.80150922
517.556	12.81610404
517.754	12.83485428
517.952	12.85029596
518.149	12.87398903
518.347	12.89986542
518.545	12.92693303
518.743	12.94361382
518.941	12.96603815
519.138	12.97928661
519.336	13.01023709
519.534	13.03200493
519.732	13.06117953
519.929	13.0914641
520.127	13.119645
520.325	13.14051461
520.523	13.17390785
520.72	13.18923733
520.918	13.20644496
521.116	13.22716573
521.313	13.25696076
521.511	13.27673448
521.709	13.30038847
521.906	13.32355438
522.104	13.34578577
522.301	13.37074407
522.499	13.38705079
522.696	13.39713827
522.894	13.42206855
523.092	13.43741297
523.289	13.45703301
523.487	13.46245396
523.684	13.47840413
523.882	13.48098052
524.079	13.48234682
524.276	13.49494742
524.474	13.51323124
524.671	13.52764518
524.869	13.54374081
525.066	13.55371944
525.264	13.55872425
525.461	13.56809379
525.658	13.58112172
525.856	13.59841887
526.053	13.61326502
526.25	13.63451005
526.448	13.65291973
526.645	13.67406014
526.842	13.70871108
527.039	13.73651917
527.237	13.77360299
527.434	13.80427191
527.631	13.85097433
527.828	13.89032672
528.026	13.93294845
528.223	13.97769647
528.42	14.02469934
528.617	14.06723296
528.814	14.10684704
529.012	14.15365766
529.209	14.20235643
529.406	14.25894609
529.603	14.30758816
529.8	14.35742248
529.997	14.40909812
530.194	14.46434255
530.391	14.52519295
530.588	14.58488176
530.785	14.65646482
530.982	14.72018513
531.179	14.79281557
531.376	14.86072492
531.573	14.94624059
531.77	15.02644941
531.967	15.11751299
532.164	15.21200309
532.361	15.320285
532.558	15.42991541
532.755	15.55403307
532.952	15.69358356
533.149	15.84377366
533.346	16.01082107
533.543	16.1931884
533.739	16.39715283
533.936	16.62234682
534.133	16.86634937
534.33	17.14400924
534.527	17.44527452
534.723	17.79635171
534.92	18.16510143
535.117	18.59996295
535.314	19.07227586
535.51	19.59778665
535.707	20.16256664
535.904	20.76904222
536.1	21.40851227
536.297	22.08542702
536.494	22.78637118
536.69	23.50901509
536.887	24.25183414
537.084	25.01168657
537.28	25.78294972
537.477	26.54952865
537.674	27.33660527
537.87	28.12511593
538.067	28.90412917
538.263	29.69650061
538.46	30.47077348
538.656	31.23277462
538.853	31.99783609
539.049	32.77874755
539.246	33.57531894
539.442	34.37811797
539.639	35.2082297
539.835	36.05017115
540.032	36.91624947
540.228	37.7976852
540.424	38.69059951
540.621	39.60166061
540.817	40.5116188
541.014	41.43394141
541.21	42.35641787
541.406	43.25192113
541.603	44.16516982
541.799	45.04700154
541.995	45.93478393
542.191	46.80747957
542.388	47.65490914
542.584	48.48409577
542.78	49.31332312
542.976	50.08592475
543.173	50.83587794
543.369	51.51420598
543.565	52.1351486
543.761	52.69958243
543.957	53.19915001
544.154	53.64254239
544.35	54.03659945
544.546	54.38040971
544.742	54.66847845
544.938	54.92197857
545.134	55.11043444
545.33	55.25712774
545.526	55.39810293
545.722	55.50065586
545.919	55.57037768
546.115	55.58482792
546.311	55.57513928
546.507	55.51401721
546.703	55.40495494
546.899	55.21681369
547.095	55.01939733
547.29	54.74278653
547.486	54.42544976
547.682	54.01983236
547.878	53.5667781
548.074	53.07449964
548.27	52.52763526
548.466	51.89933893
548.662	51.2061795
548.858	50.49174035
549.053	49.71079375
549.249	48.88713924
549.445	48.02709828
549.641	47.10916791
549.837	46.1717197
550.032	45.19024484
550.228	44.20996898
550.424	43.19619767
550.62	42.19528862
550.815	41.18948549
551.011	40.17848722
551.207	39.18735949
551.402	38.20144433
551.598	37.2322972
551.794	36.29486348
551.989	35.37857614
552.185	34.49731189
552.381	33.62354906
552.576	32.79481302
552.772	31.98978232
552.967	31.21839634
553.163	30.49139291
553.359	29.8023131
553.554	29.16325195
553.75	28.5466821
553.945	27.98196873
554.141	27.45617516
554.336	26.96342489
554.532	26.49141065
554.727	26.05667763
554.922	25.63442496
555.118	25.27164778
555.313	24.88114134
555.509	24.52344649
555.704	24.16424261
555.899	23.85278858
556.095	23.54488269
556.29	23.24965595
556.486	22.98717764
556.681	22.73148798
556.876	22.48497233
557.071	22.26331234
557.267	22.04430163
557.462	21.85872442
557.657	21.67659125
557.853	21.52194517
558.048	21.35237757
558.243	21.20797813
558.438	21.06514463
558.633	20.95125603
558.829	20.81448948
559.024	20.69788773
559.219	20.5838811
559.414	20.49061927
559.609	20.38901295
559.804	20.30096087
559.999	20.22264341
560.194	20.15935779
560.39	20.08314315
560.585	20.01947952
560.78	19.97108378
560.975	19.93279847
561.17	19.87868411
561.365	19.83128526
561.56	19.78579337
561.755	19.74169921
561.95	19.68750788
562.145	19.66612433
562.34	19.63742144
562.535	19.6132241
562.729	19.57270731
562.924	19.55606915
563.119	19.54224457
563.314	19.53091871
563.509	19.52862346
563.704	19.50744304
563.899	19.49757625
564.093	19.48072915
564.288	19.46600551
564.483	19.46649339
564.678	19.46124515
564.873	19.45586902
565.067	19.44033263
565.262	19.44560051
565.457	19.45112856
565.652	19.43516834
565.846	19.43662586
566.041	19.45115073
566.236	19.44502062
566.43	19.44891967
566.625	19.43360574
566.82	19.43362775
567.014	19.43485817
567.209	19.43642204
567.404	19.41982945
567.598	19.41404261
567.793	19.42507516
567.987	19.42524291
568.182	19.42602699
568.376	19.42136315
568.571	19.40522248
568.765	19.41299608
568.96	19.40815134
569.154	19.4207856
569.349	19.41537135
569.543	19.41670322
569.738	19.42886012
569.932	19.44212468
570.127	19.45666658
570.321	19.49280996
570.515	19.51271446
570.71	19.57496516
570.904	19.62496912
571.098	19.69615344
571.293	19.76181822
571.487	19.8507073
571.681	19.93502983
571.876	20.0232905
572.07	20.12917747
572.264	20.25396179
572.458	20.39651039
572.653	20.54662433
572.847	20.67994344
573.041	20.84910025
573.235	21.02641307
573.43	21.22847062
573.624	21.4332199
573.818	21.64721138
574.012	21.89219258
574.206	22.12266718
574.4	22.35238094
574.594	22.62284473
574.788	22.88343879
574.983	23.144326
575.177	23.3936131
575.371	23.68235213
575.565	23.95568622
575.759	24.23389087
575.953	24.53797191
576.147	24.85087848
576.341	25.15309254
576.535	25.45731006
576.729	25.79179268
576.923	26.14467993
577.117	26.49551381
577.31	26.8511643
577.504	27.19915973
577.698	27.5721041
577.892	27.94887925
578.086	28.31811292
578.28	28.71235296
578.474	29.10935115
578.668	29.509553
578.861	29.91454001
579.055	30.34309557
579.249	30.77455521
579.443	31.18040631
579.636	31.60273989
579.83	32.02531053
580.024	32.44346651
580.218	32.85481764
580.411	33.27470725
580.605	33.70298241
580.799	34.11759664
580.992	34.52565781
581.186	34.94149366
581.38	35.34265346
581.573	35.749783
581.767	36.13755778
581.961	36.53223992
582.154	36.89314749
582.348	37.27277875
582.541	37.62922869
582.735	37.95521826
582.928	38.24817645
583.122	38.51813755
583.315	38.76664727
583.509	39.00807068
583.702	39.23027184
583.896	39.42816102
584.089	39.60880145
584.283	39.7578807
584.476	39.89269293
584.67	39.98787501
584.863	40.05568492
585.056	40.10203532
585.25	40.11586729
585.443	40.09936
585.636	40.07792129
585.83	40.02876796
586.023	39.9588138
586.216	39.88756748
586.41	39.79266746
586.603	39.71275872
586.796	39.62491793
586.989	39.57770864
587.183	39.53780621
587.376	39.4716871
587.569	39.42515592
587.762	39.37550054
587.955	39.32675447
588.149	39.28349602
588.342	39.26152691
588.535	39.22821101
588.728	39.19555014
588.921	39.1792408
589.114	39.15114012
589.307	39.08850442
589.5	39.07767665
589.693	39.04154721
589.886	38.99232974
590.08	38.9193918
590.273	38.83685734
590.466	38.74858535
590.659	38.61469006
590.852	38.46713676
591.044	38.30009679
591.237	38.10599414
591.43	37.89174936
591.623	37.64447957
591.816	37.37448767
592.009	37.12572617
592.202	36.87109896
592.395	36.5907323
592.588	36.3229008
592.781	36.05278355
592.973	35.80101332
593.166	35.54180594
593.359	35.32922677
593.552	35.1061456
593.745	34.8876161
593.937	34.70171508
594.13	34.53663961
594.323	34.39383121
594.515	34.26450161
594.708	34.17160519
594.901	34.07809946
595.094	33.98850833
595.286	33.93117912
595.479	33.90149112
595.672	33.8698327
595.864	33.85996113
596.057	33.84407159
596.249	33.83615113
596.442	33.8546404
596.635	33.82498888
596.827	33.80698869
597.02	33.75214355
597.212	33.72279461
597.405	33.6479788
597.597	33.56788131
597.79	33.48582995
597.982	33.39186375
598.175	33.27695529
598.367	33.14498132
598.559	32.99790379
598.752	32.82519094
598.944	32.6713831
599.137	32.49625738
599.329	32.29961373
599.521	32.12638829
599.714	31.95368723
599.906	31.77500765
600.098	31.58927308
600.291	31.41245668
600.483	31.21836514
600.675	31.08042537
600.868	30.95007458
601.06	30.83546623
601.252	30.73247404
601.444	30.64956123
601.637	30.58064514
601.829	30.52246098
602.021	30.4762999
602.213	30.46974276
602.405	30.48206085
602.597	30.49899812
602.789	30.54546589
602.982	30.60762142
603.174	30.71031538
603.366	30.85449797
603.558	31.01300034
603.75	31.22794864
603.942	31.51908335
604.134	31.89329846
604.326	32.36189422
604.518	33.02258355
604.71	33.83336696
604.902	34.85563701
605.094	36.0897705
605.286	37.5127528
605.478	39.19943103
605.67	41.06082421
605.862	43.12092756
606.054	45.3523536
606.246	47.72008967
606.437	50.25329326
606.629	52.93766031
606.821	55.73435881
607.013	58.65273048
607.205	61.6523425
607.397	64.74431712
607.588	67.9464573
607.78	71.20122302
607.972	74.55993906
608.164	77.93279826
608.355	81.29788759
608.547	84.6172961
608.739	87.86340299
608.93	91.01788159
609.122	94.0083467
609.314	96.8865668
609.505	99.50123154
609.697	102.02937072
609.889	104.36630882
610.08	106.54179558
610.272	108.56759543
610.463	110.38771747
610.655	112.01594359
610.847	113.47869476
611.038	114.75146986
611.23	115.89191314
611.421	116.86096829
611.613	117.64124194
611.804	118.26820499
611.996	118.66809382
612.187	118.9413558
612.379	119.0938021
612.57	119.03758166
612.761	118.84596286
612.953	118.51140952
613.144	117.99004482
613.336	117.34844453
613.527	116.65433964
613.718	115.74990466
613.91	114.74679903
614.101	113.57787313
614.292	112.2657001
614.483	110.87455221
614.675	109.38077726
614.866	107.78159077
615.057	106.03984809
615.248	104.1777677
615.44	102.26657797
615.631	100.18061178
615.822	98.00830266
616.013	95.74283353
616.204	93.43724715
616.396	91.01553723
616.587	88.65242261
616.778	86.24667462
616.969	83.86052013
617.16	81.507551
617.351	79.16542446
617.542	76.83609582
617.733	74.63213889
617.924	72.50248833
618.115	70.42998809
618.306	68.52131101
618.497	66.6350595
618.688	64.8923183
618.879	63.27196422
619.07	61.81540924
619.261	60.45807961
619.452	59.226745
619.643	58.16727665
619.834	57.23395115
620.025	56.43438874
620.216	55.73148867
620.407	55.12374051
620.597	54.56022757
620.788	54.03210914
620.979	53.5880491
621.17	53.22356063
621.361	52.88452278
621.551	52.59524902
621.742	52.29257055
621.933	52.03790544
622.124	51.83787503
622.314	51.59833839
622.505	51.43562091
622.696	51.2765764
622.886	51.1341926
623.077	50.99133521
623.268	50.89999544
623.458	50.79357952
623.649	50.68104316
623.84	50.59307472
624.03	50.49605992
624.221	50.42927786
624.411	50.37708639
624.602	50.37185083
624.792	50.43880633
624.983	50.45661617
625.173	50.48819308
625.364	50.54798683
625.554	50.62277383
625.745	50.74416195
625.935	50.84685993
626.126	50.9464281
626.316	51.07372453
626.507	51.20477872
626.697	51.35507436
626.887	51.50499678
627.078	51.62522624
627.268	51.733742
627.458	51.8224805
627.649	51.90887304
627.839	51.94660985
628.029	52.00768461
628.22	52.0309138
628.41	52.02412781
628.6	51.95086552
628.79	51.80523066
628.981	51.64413189
629.171	51.43696807
629.361	51.18531259
629.551	50.8952869
629.741	50.54721634
629.932	50.20335718
630.122	49.8189886
630.312	49.4151347
630.502	48.96441325
630.692	48.48837968
630.882	47.99821609
631.072	47.50044382
631.262	47.0044743
631.452	46.51782589
631.642	45.99895506
631.832	45.50341801
632.022	44.98568095
632.212	44.45807201
632.402	43.95023561
632.592	43.43607599
632.782	42.94240771
632.972	42.44546828
633.162	41.9493369
633.352	41.47647658
633.542	41.00000039
633.732	40.54231796
633.922	40.05738392
634.111	39.59366782
634.301	39.14123601
634.491	38.68683495
634.681	38.23297584
634.871	37.75200029
635.06	37.28741536
635.25	36.81389184
635.44	36.32959038
635.63	35.88445818
635.819	35.43032173
636.009	34.97586794
636.199	34.56241029
636.388	34.12206438
636.578	33.68433078
636.768	33.25636791
636.957	32.86687528
637.147	32.52640765
637.337	32.16244671
637.526	31.86257732
637.716	31.52823235
637.905	31.25189085
638.095	30.9921992
638.284	30.73681446
638.474	30.51885905
638.663	30.30307529
638.853	30.14590373
639.042	30.00470993
639.232	29.86514115
639.421	29.78602985
639.611	29.68299679
639.8	29.63565057
639.99	29.6017407
640.179	29.55281112
640.368	29.50946045
640.558	29.53021308
640.747	29.52629449
640.936	29.52677382
641.126	29.47555031
641.315	29.51470733
641.504	29.48788731
641.694	29.51329913
641.883	29.51422988
642.072	29.54186342
642.261	29.57582212
642.451	29.57145442
642.64	29.61004612
642.829	29.61954865
643.018	29.62703274
643.207	29.66179121
643.397	29.67428218
643.586	29.71700318
643.775	29.76115508
643.964	29.78967744
644.153	29.85544011
644.342	29.97139606
644.531	30.05202215
644.72	30.18055509
644.909	30.2784502
645.098	30.4319087
645.287	30.53201219
645.476	30.65907501
645.665	30.79582193
645.854	30.94561789
646.043	31.06970209
646.232	31.21515517
646.421	31.40263037
646.61	31.57714057
646.799	31.76400947
646.988	31.96172227
647.177	32.14339367
647.365	32.32427862
647.554	32.49248256
647.743	32.64878888
647.932	32.82033959
648.121	32.96645068
648.309	33.10433916
648.498	33.2039681
648.687	33.3285161
648.876	33.46113135
649.064	33.55830129
649.253	33.65348253
649.442	33.74788467
649.63	33.81716698
649.819	33.8789129
650.008	33.94842583
650.196	33.99641733
650.385	34.02276764
650.574	34.04222297
650.762	34.06580328
650.951	34.04524853
651.139	34.05655258
651.328	34.05580266
651.516	34.06485542
651.705	34.07681193
651.893	34.07883713
652.082	34.03592491
652.27	34.00278359
652.459	33.97868848
652.647	33.95108593
652.836	33.90643358
653.024	33.85228063
653.213	33.78799255
653.401	33.71798221
653.589	33.63328985
653.778	33.52423609
653.966	33.41971596
654.154	33.32589807
654.343	33.20983195
654.531	33.06803807
654.719	32.89741316
654.908	32.76966722
655.096	32.60585394
655.284	32.43364782
655.472	32.2857663
655.661	32.08964184
655.849	31.91188543
656.037	31.78640046
656.225	31.63511438
656.413	31.48260552
656.601	31.31448851
656.79	31.17931082
656.978	31.06547771
657.166	30.95759868
657.354	30.85206312
657.542	30.79615156
657.73	30.7217073
657.918	30.65797039
658.106	30.59757466
658.294	30.56702098
658.482	30.55339662
658.67	30.55890179
658.858	30.59858534
659.046	30.61758468
659.234	30.66473423
659.422	30.6697955
659.61	30.70673265
659.798	30.74819453
659.986	30.76893258
660.173	30.80577338
660.361	30.86358994
660.549	30.8977834
660.737	30.93379254
660.925	30.9541343
661.113	31.00482535
661.3	31.04477764
661.488	31.03373872
661.676	31.08578721
661.864	31.1216933
662.051	31.16265413
662.239	31.18278209
662.427	31.19007182
662.614	31.20546823
662.802	31.16373971
662.99	31.1394039
663.177	31.1527043
663.365	31.16530175
663.553	31.16381383
663.74	31.15283531
663.928	31.1500927
664.115	31.13710941
664.303	31.10712428
664.49	31.08883426
664.678	31.05728037
664.866	31.01996385
665.053	30.98549083
665.24	30.94194305
665.428	30.92862631
665.615	30.86346932
665.803	30.82727066
665.99	30.76738137
666.178	30.70955601
666.365	30.6537771
666.552	30.60492039
666.74	30.58981744
666.927	30.56300734
667.114	30.4794875
667.302	30.41094864
667.489	30.36796415
667.676	30.29928312
667.864	30.21969499
668.051	30.15218798
668.238	30.09751154
668.425	30.06542022
668.613	30.0372151
668.8	30.01118139
668.987	29.95636268
669.174	29.89151123
669.361	29.82758513
669.548	29.79217224
669.736	29.75352343
669.923	29.68918853
670.11	29.62684536
670.297	29.58629717
670.484	29.54658299
670.671	29.49256864
670.858	29.4343226
671.045	29.40258734
671.232	29.38024004
671.419	29.33273578
671.606	29.31162936
671.793	29.26685674
671.98	29.2500891
672.167	29.23673316
672.354	29.21436376
672.541	29.17991191
672.728	29.14125536
672.915	29.10111478
673.101	29.07270116
673.288	29.07878853
673.475	29.06009804
673.662	28.99796973
673.849	29.00438229
674.035	28.99142875
674.222	28.98062216
674.409	28.9559216
674.596	28.95428879
674.783	28.93988246
674.969	28.90854502
675.156	28.91087282
675.343	28.92046941
675.529	28.89807729
675.716	28.90648708
675.903	28.8953036
676.089	28.8556599
676.276	28.81786197
676.462	28.78465259
676.649	28.77174609
676.836	28.77027751
677.022	28.78483851
677.209	28.74907599
677.395	28.72018267
677.582	28.71699552
677.768	28.70068923
677.955	28.713114
678.141	28.70292821
678.328	28.68248399
678.514	28.66401356
678.701	28.68212832
678.887	28.71064163
679.073	28.68888014
679.26	28.68510144
679.446	28.70348529
679.632	28.70396914
679.819	28.70920863
680.005	28.7560996
680.191	28.7725961
680.378	28.79824265
680.564	28.84288556
680.75	28.87638773
680.936	28.91918964
681.123	28.98534418
681.309	29.05700387
681.495	29.1293875
681.681	29.21140809
681.867	29.31334638
682.054	29.40997437
682.24	29.51190915
682.426	29.58832782
682.612	29.68463062
682.798	29.77640032
682.984	29.91569892
683.17	30.00495898
683.356	30.14913669
683.542	30.28287453
683.728	30.40497826
683.914	30.49780776
684.1	30.6266623
684.286	30.76353295
684.472	30.85798367
684.658	30.96990341
684.844	31.07003716
685.03	31.14819692
685.216	31.24477365
685.402	31.29598775
685.588	31.35947781
685.774	31.40404343
685.96	31.43259953
686.145	31.46541356
686.331	31.50238897
686.517	31.51985627
686.703	31.52517454
686.889	31.53931724
687.074	31.57589707
687.26	31.54823407
687.446	31.53612465
687.631	31.53905411
687.817	31.56656955
688.003	31.55520223
688.189	31.51756701
688.374	31.5052948
688.56	31.52166001
688.745	31.52355158
688.931	31.52279924
689.117	31.5008161
689.302	31.5419212
689.488	31.53070878
689.673	31.50965605
689.859	31.5150348
690.044	31.51488685
690.23	31.522081
690.415	31.51175815
690.601	31.50969922
690.786	31.46682443
690.972	31.40932528
691.157	31.41184079
691.343	31.37025826
691.528	31.29827589
691.713	31.22729013
691.899	31.14377421
692.084	31.07956257
692.269	31.01659962
692.455	30.87256663
692.64	30.73646303
692.825	30.61529481
693.011	30.49024384
693.196	30.32626588
693.381	30.16544736
693.566	29.97805304
693.752	29.84557856
693.937	29.70664039
694.122	29.5430149
694.307	29.36052377
694.492	29.19494174
694.678	29.02889445
694.863	28.90507383
695.048	28.70451303
695.233	28.55158637
695.418	28.40355928
695.603	28.2600624
695.788	28.1530508
695.973	28.04989838
696.158	27.92768278
696.343	27.80981954
696.528	27.72032718
696.713	27.62615817
696.898	27.56275078
697.083	27.50820701
697.268	27.42672299
697.453	27.380653
697.638	27.31667213
697.823	27.26497471
698.008	27.22769207
698.192	27.22907722
698.377	27.21290415
698.562	27.2143214
698.747	27.19985051
698.932	27.21276235
699.117	27.24566046
699.301	27.2955387
699.486	27.35899052
699.671	27.39254177
699.856	27.41979958
700.04	27.46056623
700.225	27.5580543
700.41	27.69541371
700.594	27.81584795
700.779	27.99776997
700.964	28.18589973
701.148	28.43059993
701.333	28.68959655
701.517	28.98274083
701.702	29.30159541
701.887	29.66315439
702.071	30.01302062
702.256	30.39957322
702.44	30.81319572
702.625	31.23241734
702.809	31.72007042
702.994	32.28266511
703.178	32.82881199
703.362	33.41131236
703.547	34.04747765
703.731	34.73429509
703.916	35.42747989
704.1	36.13470924
704.284	36.7856354
704.469	37.49520337
704.653	38.13540457
704.837	38.76674315
705.022	39.38316946
705.206	40.00180172
705.39	40.59559296
705.575	41.15146031
705.759	41.64653297
705.943	42.17652719
706.127	42.7023909
706.311	43.21137796
706.496	43.73733944
706.68	44.18179393
706.864	44.5401944
707.048	44.91980318
707.232	45.24499445
707.416	45.56155729
707.6	45.80337867
707.785	46.02678808
707.969	46.21937089
708.153	46.39372473
708.337	46.49560497
708.521	46.56266045
708.705	46.62052822
708.889	46.67840938
709.073	46.65787777
709.257	46.65103252
709.441	46.59813523
709.624	46.54053952
709.808	46.42705365
709.992	46.2452263
710.176	46.02317211
710.36	45.75023881
710.544	45.46621592
710.728	45.13586658
710.912	44.73535797
711.095	44.29939961
711.279	43.86361782
711.463	43.40227838
711.647	42.92573805
711.83	42.40962558
712.014	41.89113931
712.198	41.38744587
712.382	40.88076323
712.565	40.33506636
712.749	39.79463507
712.933	39.2857501
713.116	38.7187492
713.3	38.18051814
713.483	37.63684591
713.667	37.10027544
713.851	36.56004644
714.034	36.07341818
714.218	35.58801595
714.401	35.10635311
714.585	34.60394766
714.768	34.14176483
714.952	33.70703095
715.135	33.26112013
715.319	32.8041165
715.502	32.37626373
715.686	31.96995501
715.869	31.5977588
716.052	31.20280762
716.236	30.83707383
716.419	30.50255699
716.602	30.16959158
716.786	29.80607897
716.969	29.49562595
717.152	29.17967614
717.336	28.89131592
717.519	28.59241348
717.702	28.3537704
717.885	28.08408416
718.069	27.86564818
718.252	27.61187799
718.435	27.43658701
718.618	27.26048508
718.801	27.07439782
718.985	26.9212557
719.168	26.81161432
719.351	26.74121269
719.534	26.63733307
719.717	26.48207123
719.9	26.41979282
720.083	26.33866643
720.266	26.24219649
720.449	26.12991116
720.632	26.07714077
720.815	26.00033587
720.998	25.97292253
721.181	25.93890032
721.364	25.92496212
721.547	25.89826595
721.73	25.87698511
721.913	25.83097311
722.096	25.81664179
722.279	25.79146545
722.461	25.81060318
722.644	25.76127815
722.827	25.75842014
723.01	25.72576691
723.193	25.72294539
723.376	25.71203005
723.558	25.67860588
723.741	25.59678631
723.924	25.57136831
724.107	25.57487207
724.289	25.62838917
724.472	25.61268897
724.655	25.59895409
724.837	25.5725793
725.02	25.58311022
725.203	25.56640849
725.385	25.56122508
725.568	25.53647889
725.75	25.56807796
725.933	25.55502305
726.115	25.58721666
726.298	25.5911271
726.481	25.66029118
726.663	25.62681529
726.845	25.61489665
727.028	25.55911972
727.21	25.5445058
727.393	25.53345409
727.575	25.57498945
727.758	25.55571641
727.94	25.56129478
728.122	25.52605614
728.305	25.53706614
728.487	25.54678691
728.67	25.57833629
728.852	25.5573134
729.034	25.59054723
729.216	25.53042944
729.399	25.53589537
729.581	25.50254426
729.763	25.53514139
729.945	25.52720962
730.128	25.49896266
730.31	25.48610069
730.492	25.47272931
730.674	25.45487893
730.856	25.46683793
731.039	25.46022522
731.221	25.48191421
731.403	25.47208786
731.585	25.51904559
731.767	25.50286946
731.949	25.51270309
732.131	25.51896092
732.313	25.4992597
732.495	25.47357116
732.677	25.51464268
732.859	25.47581974
733.041	25.50391525
733.223	25.50569198
733.405	25.52963885
733.587	25.50437493
733.769	25.48279058
733.951	25.45495407
734.132	25.45620991
734.314	25.44664111
734.496	25.47912092
734.678	25.48404201
734.86	25.4942286
735.042	25.49285973
735.223	25.48283291
735.405	25.50111998
735.587	25.51362539
735.769	25.51040237
735.95	25.56708753
736.132	25.58088508
736.314	25.59068071
736.495	25.55281056
736.677	25.59785155
736.859	25.62772301
737.04	25.65887977
737.222	25.61068307
737.403	25.6001922
737.585	25.59948012
737.767	25.68403291
737.948	25.68155557
738.13	25.72970774
738.311	25.73487357
738.493	25.76892514
738.674	25.76813619
738.856	25.82691958
739.037	25.83302384
739.219	25.79642738
739.4	25.83529741
739.581	25.88517964
739.763	25.83728186
739.944	25.9207486
740.125	25.95376295
740.307	26.00902383
740.488	26.04123992
740.669	26.03236438
740.851	26.02901478
741.032	26.05247912
741.213	26.08303759
741.395	26.119715
741.576	26.05085353
741.757	26.06110348
741.938	26.0276752
742.119	26.0489622
742.301	26.03535543
742.482	26.08326563
742.663	26.04824305
742.844	26.05383815
743.025	26.09165858
743.206	26.05029171
743.387	26.04731046
743.568	26.05596873
743.749	26.0437961
743.93	26.0480198
744.111	26.00013899
744.292	25.90945637
744.473	25.86468218
744.654	25.88623871
744.835	25.89828936
745.016	25.91655486
745.197	25.85348237
745.378	25.83738148
745.559	25.80994036
745.74	25.78740128
745.921	25.73648938
746.102	25.74657461
746.282	25.70448399
746.463	25.78087538
746.644	25.8084676
746.825	25.69486347
747.006	25.65130886
747.186	25.54553547
747.367	25.56824872
747.548	25.53170152
747.728	25.42203174
747.909	25.40770094
748.09	25.3747591
748.27	25.39241352
748.451	25.31577797
748.632	25.2814047
748.812	25.28703887
748.993	25.25756944
749.173	25.23642705
749.354	25.22679299
749.535	25.20710738
749.715	25.26403496
749.896	25.16340283
750.076	25.07036966
750.257	24.94608555
750.437	24.91515887
750.618	24.91014003
750.798	24.95308025
750.978	24.95402786
751.159	24.88844895
751.339	24.87725845
751.52	24.94187653
751.7	24.92210704
751.88	24.91662646
752.061	24.84846361
752.241	24.85085224
752.421	24.77931429
752.601	24.7161326
752.782	24.67473993
752.962	24.72044695
753.142	24.70028766
753.322	24.70018423
753.503	24.71228435
753.683	24.73037725
753.863	24.77928031
754.043	24.81777175
754.223	24.82201494
754.403	24.88740007
754.583	24.88212493
754.764	24.94840646
754.944	24.90519304
755.124	24.86040517
755.304	24.72077899
755.484	24.7169869
755.664	24.76451833
755.844	24.84348746
756.024	24.74247378
756.204	24.80524606
756.384	24.72295811
756.564	24.78835506
756.743	24.71445076
756.923	24.70713498
757.103	24.65139603
757.283	24.57567023
757.463	24.5166058
757.643	24.55486665
757.823	24.47182891
758.002	24.38173204
758.182	24.25967538
758.362	24.24150581
758.542	24.12772537
758.721	24.11541485
758.901	24.07172028
759.081	24.10522534
759.261	24.04246815
759.44	23.9623097
759.62	23.8486809
759.8	23.90275615
759.979	23.83969626
760.159	23.88718809
760.338	23.86645704
760.518	23.85559267
760.698	23.78516091
760.877	23.87388028
761.057	23.79757738
761.236	23.81124816
761.416	23.7326948
761.595	23.76698333
761.775	23.8020055
761.954	23.88822402
762.133	23.88887924
762.313	23.95587008
762.492	24.0119654
762.672	24.04213861
762.851	24.0171544
763.03	24.03502656
763.21	24.06427781
763.389	24.11012866
763.568	24.06351687
763.748	24.05332605
763.927	24.0108874
764.106	24.04636379
764.286	24.09801137
764.465	24.20207466
764.644	24.16734258
764.823	24.18616823
765.002	24.12753044
765.182	24.19202223
765.361	24.16179516
765.54	24.21094357
765.719	24.17408867
765.898	24.21672712
766.077	24.14795696
766.256	24.13320046
766.435	24.16112738
766.614	24.22242595
766.793	24.16262277
766.972	24.13866749
767.151	24.15757716
767.33	24.20474263
767.509	24.20279939
767.688	24.20624263
767.867	24.137921
768.046	24.04433987
768.225	23.95405816
768.404	23.90394959
768.583	23.87292135
768.762	23.91892204
768.94	23.82970073
769.119	23.79637602
769.298	23.6213728
769.477	23.56679481
769.656	23.41516879
769.834	23.43449625
770.013	23.41912856
770.192	23.2973956
770.37	23.22582236
770.549	23.29324658
770.728	23.28335624
770.906	23.26796421
771.085	23.30337188
771.264	23.34378762
771.442	23.29775875
771.621	23.32563539
771.799	23.34936538
771.978	23.39522983
772.157	23.30728468
772.335	23.37146293
772.514	23.33298826
772.692	23.28713072
772.871	23.2550729
773.049	23.3573552
773.228	23.30890949
773.406	23.24078698
773.584	23.26439305
773.763	23.18184885
773.941	23.24938201
774.119	23.42446893
774.298	23.33165787
774.476	23.23511239
774.655	23.17712284
774.833	23.08938246
775.011	22.98234877
775.189	23.01685731
775.368	22.88696145
775.546	22.8160258
775.724	22.54743642
775.902	22.65943493
776.08	22.50799699
776.259	22.49661985
776.437	22.45740222
776.615	22.47576859
776.793	22.28094556
776.971	22.2927727
777.149	22.3674819
777.327	22.21973494
777.505	22.20341173
777.683	22.07529885
777.861	21.79755589
778.04	21.82263954
778.218	21.75341883
778.395	21.68299252
778.573	21.56535528
778.751	21.65875453
778.929	21.63131823
779.107	21.54532699
779.285	21.44908338
779.463	21.54871031
779.641	21.42046889
779.819	21.48575968
779.997	21.44856234
780.174	21.45859992
780.352	21.40769061
780.53	21.39888418
780.708	21.30912187
780.886	21.23687262
781.063	21.14213522
781.241	20.95729536
781.419	20.89164797
781.596	20.87400613
781.774	20.77894061
781.952	20.79473559
782.129	20.86377426
782.307	20.87712995
782.485	20.67916696
782.662	20.64962296
782.84	20.76965939
783.017	20.82830893
783.195	20.62550501
783.372	20.64544066
783.55	20.60349948
783.727	20.54464307
783.905	20.49065932
784.082	20.52646915
784.26	20.70239368
784.437	20.61976051
784.615	20.71559735
784.792	20.79348205
784.969	20.93661306
785.147	20.98730873
785.324	20.92820455
785.501	20.95457547
785.679	21.00369969
785.856	20.87723125
786.033	20.94519881
786.211	21.04256929
786.388	20.93594054
786.565	20.84918305
786.742	20.81433468
786.92	20.98580562
787.097	20.91588404
787.274	21.01511938
787.451	21.06213219
787.628	20.93659236
787.805	20.85774714
787.982	20.70238726
788.16	20.68522566
788.337	20.52977225
788.514	20.39618138
788.691	20.28152394
788.868	20.09031414
789.045	20.04740813
789.222	20.01509166
789.399	20.06664383
789.576	20.03051398
789.753	19.90644588
789.93	19.88015342
790.106	19.79063422
790.283	19.74619055
790.46	19.80233962
790.637	19.79192358
790.814	19.90050438
790.991	19.67718044
791.168	19.61348997
791.344	19.80225772
791.521	19.86092025
791.698	19.77592963
791.875	19.71020101
792.051	19.56003348
792.228	19.53708068
792.405	19.41087024
792.581	19.61271265
792.758	19.68804067
792.935	19.61688389
793.111	19.43063854
793.288	19.38184757
793.465	19.34443881
793.641	19.30854681
793.818	19.32005129
793.994	19.25896052
794.171	18.98489303
794.347	18.80149424
794.524	18.72383676
794.7	18.636936
794.877	18.53160818
795.053	18.52428926
795.23	18.42649367
795.406	18.48692364
795.583	18.52914719
795.759	18.58474839
795.935	18.65700903
796.112	18.83864584
796.288	18.65332729
796.464	18.49263826
796.641	18.41462293
796.817	18.32805849
796.993	18.39490553
797.169	18.39104232
797.346	18.16822204
797.522	18.15906902
797.698	18.13243333
797.874	18.14004497
798.051	18.14430276
798.227	18.01392723
798.403	17.79485976
798.579	17.81452938
798.755	17.54099455
798.931	17.30028145
799.107	17.19656899
799.283	17.15932416
799.459	17.14145456
799.635	17.11038235
799.811	16.93002427
799.987	16.85777677
800.163	16.92573622
800.339	16.93991726
800.515	16.98630349
800.691	17.03537178
800.867	17.00565504
801.043	17.19207575
801.219	17.20964481
801.395	17.05724256
801.571	17.26505824
801.746	17.43805554
801.922	17.50459279
802.098	17.9182754
802.274	17.78926327
802.45	17.84209347
802.625	17.88788007
802.801	17.89644263
802.977	18.13507189
803.152	17.96270007
803.328	17.91076863
803.504	18.01023923
803.679	17.96822738
803.855	17.95195847
804.031	17.98732531
804.206	18.04494741
804.382	17.88601328
804.557	17.87347012
804.733	17.6466664
804.909	17.72558376
805.084	17.87439472
805.26	17.88816616
805.435	17.65085809
805.61	17.60701501
805.786	17.31218982
805.961	17.31722258
806.137	17.22815964
806.312	17.51185733
806.488	17.54284355
806.663	17.35116054
806.838	17.53359286
807.014	17.57675008
807.189	17.41989751
807.364	17.47573134
807.54	17.46983978
807.715	17.44983194
807.89	17.47089805
808.065	17.3578187
808.241	17.31694958
808.416	17.48483576
808.591	17.49615419
808.766	17.2836867
808.941	17.1510211
809.116	17.107067
809.291	16.96477603
809.467	17.05640849
809.642	16.96303906
809.817	16.81357042
809.992	16.45648787
810.167	16.12868755
810.342	16.04162496
810.517	15.94408987
810.692	15.89331673
810.867	15.92203208
811.042	15.70989314
811.217	15.62316363
811.392	15.57546757
811.567	15.22344756
811.741	14.92945048
811.916	14.8415097
812.091	14.79577963
812.266	14.62368513
812.441	14.78550037
812.616	14.69206701
812.79	14.80910489
812.965	14.41768638
813.14	14.6449577
813.315	14.94815601
813.489	15.26694149
813.664	15.37214312
813.839	15.58181663
814.013	15.22055353
814.188	15.03785749
814.363	14.82151185
814.537	14.78780093
814.712	15.20731937
814.887	15.3506773
815.061	15.11247745
815.236	15.38067078
815.41	15.69184576
815.585	15.73880034
815.759	15.80053602
815.934	15.71875744
816.108	15.7689313
816.283	15.56922858
816.457	15.98413185
816.631	16.51926342
816.806	16.59726234
816.98	16.82217003
817.155	17.33254994
817.329	17.89940484
817.503	18.39641936
817.678	18.94828878
817.852	19.28568558
818.026	19.69069023
818.201	20.21227017
818.375	20.34365081
818.549	20.65087153
818.723	20.93916558
818.897	21.10564016
819.072	21.2098103
819.246	21.41752118
819.42	21.55538009
819.594	21.73052875
819.768	21.79694828
819.942	21.89890626
820.116	21.83710584
820.29	21.84146085
820.465	21.89903527
820.639	21.94128968
820.813	21.81287208
820.987	21.6783734
821.161	21.5379202
821.335	21.44937473
821.509	21.34609587
821.682	21.26712518
821.856	20.98459764
822.03	20.89918958
822.204	20.65603517
822.378	20.47611456
822.552	20.20020747
822.726	20.13784248
822.9	19.93026612
823.073	19.63379233
823.247	19.36652471
823.421	19.27302827
823.595	19.12283953
823.768	18.87467848
823.942	18.79903608
824.116	18.62581512
824.289	18.43622493
824.463	18.37946573
824.637	18.4091486
824.81	18.40167086
824.984	18.2571689
825.158	18.28719688
825.331	18.1237719
825.505	18.07585699
825.678	17.97238363
825.852	17.73894837
826.025	17.58541241
826.199	17.50476247
826.372	17.15790242
826.546	16.75666313
826.719	16.68789846
826.893	16.46046935
827.066	16.09286216
827.24	15.55781433
827.413	15.74899776
827.586	15.36462877
827.76	15.06390652
827.933	14.80435307
828.106	14.48872692
828.28	14.12371681
828.453	13.61170246
828.626	13.37287813
828.799	13.50874661
828.973	13.86396307
829.146	13.77749143
829.319	13.67526898
829.492	13.88825705
829.665	13.84203117
829.839	13.81006599
830.012	13.90004638
830.185	14.00524463
830.358	13.92505749
830.531	14.07516061
830.704	13.98475312
830.877	14.38335325
831.05	14.14979801
831.223	13.94802721
831.396	14.15696352
831.569	14.15298326
831.742	14.30135241
831.915	14.49824212
832.088	14.81207345
832.261	15.0687751
832.434	14.68394901
832.607	14.29904352
832.779	14.18600983
832.952	14.16922302
833.125	14.10443955
833.298	14.16899364
833.471	14.41566747
833.643	14.35938187
833.816	14.16412099
833.989	14.17185979
834.162	13.75646872
834.334	13.94055703
834.507	13.83787863
834.68	14.08621783
834.852	14.25260254
835.025	13.42914271
835.198	13.01002545
835.37	13.62937735
835.543	13.36284447
835.715	13.31446032
835.888	12.82815033
836.061	13.02891235
836.233	13.01339161
836.406	13.37872101
836.578	13.54164683
836.751	13.05520642
836.923	12.8593414
837.095	12.80177827
837.268	12.39580613
837.44	12.58662385
837.613	12.93158535
837.785	12.39271399
837.957	12.3923445
838.13	12.17327907
838.302	12.12345898
838.474	12.25547129
838.647	11.54835692
838.819	12.08768571
838.991	11.70431986
839.163	11.36157651
839.336	12.47202524
839.508	13.19254132
839.68	12.78623135
839.852	12.56753045
840.024	12.76397024
840.196	12.48237878
840.368	14.02984571
840.541	15.50305879
840.713	15.2716255
840.885	15.99757362
841.057	15.36132115
841.229	13.97281837
841.401	15.28310662
841.573	14.76696354
841.745	16.38053205
841.917	16.38890046
842.089	17.10844909
842.261	19.84406547
842.432	20.27027027
842.604	19.32941021
842.776	19.21115039
842.948	17.58783502
843.12	16.71519136
843.292	18.25904834
843.464	18.40945033
843.635	17.70919737
843.807	18.87946581
843.979	17.78103423
844.151	16.69528764
844.322	17.44395067
844.494	17.52309323
844.666	19.13027825
844.837	19.87270156
845.009	20.54798154
845.181	21.09872193
845.352	20.95888965
845.524	20.51613926
845.695	19.92469324
845.867	21.56355095
846.039	20.76522022
846.21	20.51659901
846.382	22.21688788
846.553	23.42525157
846.725	23.79708551
846.896	22.77618968
847.068	22.58303596
847.239	20.47534528
847.41	19.35202387
847.582	18.72077959
847.753	16.52564474
847.925	14.74737034
848.096	14.12362353
848.267	10.95238095
848.439	10.81988825
848.61	12.1659906
848.781	10.81500561
848.952	10.00680041
849.124	10.71747646
849.295	10.4121399
849.466	4.62889925
849.637	5.15216613
849.808	6.66642811
849.98	6.44984269
850.151	4.03171767
850.322	5.61679994
850.493	6.9613303
850.664	9.9744959
850.835	12.2137707
851.006	7.75317753
851.177	7.99717209
851.348	10.27957165
851.519	10.0648002
851.69	10.76929413
851.861	13.1154807
852.032	13.98898696
852.203	12.26638278
852.374	13.04401078
852.545	11.10793832
852.716	9.73939746
852.887	11.33835215
853.057	16.15969582
853.228	15.45154639
853.399	15.86378062
853.57	13.20762207
853.741	13.3198829
853.911	9.76070023
854.082	8.05753666
854.253	4.70468432
854.424	4.97452176
854.594	7.80248316
854.765	8.3832581
854.936	7.82851429
855.106	10.19712526
855.277	11.18747458
855.447	9.88150312
855.618	11.56217049
855.789	11.66222146
855.959	13.11133793
856.13	16.08505998
856.3	13.88911943
856.471	12.97694264
856.641	10.222986
856.812	12.94316032
856.982	12.94991839
857.153	15.43198937
857.323	15.20565206
857.493	18.0889369
857.664	22.68471776
857.834	22.3731467
858.004	18.83177136
858.175	20.76357302
858.345	21.64025134
858.515	22.03097304
858.686	20.18710229
858.856	19.88249235
859.026	21.9752223
859.196	20.55527254
859.367	21.17503657
859.537	20.90355137
859.707	17.47346493
859.877	18.93524734
860.047	19.22680943
860.217	22.57449222
860.387	17.60256829
860.558	17.52755906
860.728	14.17051875
860.898	16.64969968
861.068	14.44512382
861.238	11.52893841
861.408	14.59940348
861.578	19.86160943
861.748	19.16841789
861.918	15.65677744
862.088	15.13053588
862.257	16.57537133
862.427	17.23571201
862.597	18.95525561
862.767	17.67049571
862.937	17.16139076
863.107	17.36072655
863.277	20.03093993
863.446	18.88562742
863.616	17.41656893
863.786	17.55447942
863.956	20.0666325
864.125	18.01730505
864.295	19.89397023
864.465	16.73187697
864.634	17.93070667
864.804	18.489556
864.974	17.23272455
865.143	14.10391805
865.313	14.61035537
865.482	17.19908132
865.652	17.0503296
865.822	19.66364122
865.991	19.62652029
866.161	23.64283438
866.33	23.49208132
866.5	21.82490051
866.669	20.37077308
866.838	22.01009059
867.008	26.66705323
867.177	32.98914946
867.347	29.88840081
867.516	30.20666749
867.685	29.75673328
867.855	32.98962782
868.024	31.90659143
868.193	31.98881293
868.363	32.36092266
868.532	32.58463123
868.701	34.38886648
868.87	33.63535759
869.04	26.19955979
869.209	27.61298447
869.378	26.47716161
869.547	24.83898669
869.716	16.44787055
869.885	17.96248676
870.055	17.41402818
870.224	15.85695007
870.393	13.64603923
870.562	13.13005143
870.731	4.45292621
870.9	7.52212389
871.069	9.55543129
871.238	6.26162874
871.407	5.51061678
871.576	1.42378559
871.745	6.3999404
871.914	4.52123724
872.083	6.34259913
872.251	5.95320986
872.42	8.23754789
872.589	19.79536821
872.758	20.31068712
872.927	16.34482759
873.096	18.41402742
873.264	21.97165673
873.433	22.37810733
873.602	21.91543074
873.771	23.02929629
873.939	24.19506242
874.108	23.89175959
874.277	23.72230559
874.445	20.53135963
874.614	19.87217472
874.783	21.17698621
874.951	18.78166831
875.12	21.22523425
875.288	17.44470859
875.457	17.58541681
875.625	16.60185365
875.794	16.79824832
875.962	18.363506
876.131	15.17095257
876.299	14.2323465
876.468	15.97287573
876.636	14.45720536
876.805	13.21712874
876.973	12.96011004
877.141	10.91665271
877.31	9.71555957
877.478	8.21991914
877.647	9.3367021
877.815	10.69489051
877.983	11.21531731
878.151	12.30088496
878.32	13.12167657
878.488	14.68177913
878.656	16.18367488
878.824	16.8418471
878.992	16.14002246
879.161	17.25691952
879.329	17.70535792
879.497	14.63356523
879.665	16.35223386
879.833	17.90626031
880.001	15.84470696
880.169	15.22114082
880.337	15.67164179
880.505	16.643845
880.673	18.79791697
880.841	22.31620553
881.009	22.17289328
881.177	18.16767644
881.345	17.18556519
881.513	16.02926829
881.681	11.62391436
881.849	9.86797177
882.017	2.85104245
882.185	-0.37284649
882.352	6.78249678
882.52	1.04134287
882.688	-16.89631416
882.856	-14.22049374
883.024	-21.99615508
883.191	-19.09210095
883.359	-24.4957265
883.527	-28.101473
883.694	-26.867318
883.862	-24.18170694
884.03	-20.93759421
884.197	-8.83859949
884.365	-9.81385163
884.533	-1.61468396
884.7	3.86894962
884.868	-0.38237993
885.035	7.33646078
885.203	9.90795193
885.37	9.19752052
885.538	11.17239713
885.705	8.87345679
885.873	6.48727209
886.04	11.41659681
886.208	20.96695226
886.375	20.98458904
886.542	29.09082509
886.71	26.75893887
886.877	28.18476171
