Data from orange_paint-4g_ba-5g_Reflection_001.txt Node
Date: Tue Nov 28 17:29:39 AEST 2023
User: uqkchene_local
Spectrometer: USB4E02642
Trigger mode: 4
Integration Time (sec): 2.320000E-1
Scans to average: 10
Electric dark correction enabled: true
Nonlinearity correction enabled: false
Boxcar width: 10
XAxis mode: Wavelengths
Number of Pixels in Spectrum: 3648
>>>>>Begin Spectral Data<<<<<
179.217	613.60847741
179.432	823.14814815
179.647	893.09173273
179.862	580.16806723
180.077	421.76591376
180.293	328.28618968
180.508	1320.62992126
180.723	-574.05857741
180.938	-362.95628662
181.153	-115.1734104
181.368	-82.23350254
181.583	-8.88450148
181.798	1.78828959
182.013	22.89416847
182.228	51.73836181
182.443	58.70859411
182.658	69.98666074
182.873	75.96899225
183.088	70.07710195
183.303	66.7651715
183.518	71.29303334
183.733	72.08872458
183.948	73.05597221
184.162	63.45049391
184.377	59.10687406
184.592	56.6650609
184.807	62.43173687
185.022	65.25594765
185.237	69.07172219
185.452	67.89681335
185.667	69.23409245
185.882	70.41943953
186.096	65.68023017
186.311	67.74542761
186.526	68.16291655
186.741	65.87193088
186.956	65.23138621
187.17	62.70380072
187.385	62.25668944
187.6	60.21698862
187.815	61.56285886
188.03	63.36826433
188.244	60.43812233
188.459	56.71476751
188.674	59.81718073
188.889	59.23949997
189.103	61.03238349
189.318	58.56941618
189.533	58.49146361
189.747	55.56641127
189.962	58.02626872
190.177	56.26487544
190.391	54.8445502
190.606	55.05271695
190.821	56.68029802
191.035	58.39440559
191.25	58.22844649
191.465	56.59582378
191.679	58.77333333
191.894	55.68684482
192.109	63.13439141
192.323	61.05561794
192.538	60.88541963
192.752	62.44461511
192.967	66.15538906
193.181	62.032149
193.396	66.11378743
193.611	67.01963923
193.825	64.46095262
194.04	65.04980511
194.254	67.7710289
194.469	62.40040153
194.683	62.31679647
194.898	61.81908734
195.112	68.05564219
195.327	67.96681001
195.541	62.33323538
195.756	63.41853949
195.97	63.61283929
196.184	62.4546031
196.399	60.63390521
196.613	60.53203948
196.828	62.29321812
197.042	61.49565612
197.257	59.63297727
197.471	59.5183425
197.685	64.16616693
197.9	62.42528198
198.114	58.30512006
198.328	57.08757132
198.543	56.10454888
198.757	54.20359399
198.971	56.07697024
199.186	55.25034277
199.4	54.52698647
199.614	52.8036713
199.829	52.21483674
200.043	54.45909757
200.257	53.02679628
200.471	50.17073811
200.686	46.64212
200.9	48.56954114
201.114	45.16388094
201.328	40.14311981
201.543	40.59727542
201.757	42.79092462
201.971	41.4255642
202.185	38.16997194
202.399	36.36815673
202.614	40.13044123
202.828	43.17567223
203.042	44.58585756
203.256	45.93662084
203.47	49.33943892
203.684	54.48420193
203.899	56.53569791
204.113	52.55370607
204.327	50.42450396
204.541	48.56349315
204.755	48.56923978
204.969	49.95779841
205.183	52.1425068
205.397	50.5502153
205.611	53.08283074
205.825	53.9066916
206.039	51.72553067
206.253	49.47488065
206.467	48.14128913
206.681	51.18223626
206.895	50.65648994
207.109	50.41699304
207.323	51.12802768
207.537	51.63975667
207.751	51.16829879
207.965	51.27033705
208.179	47.65568646
208.393	46.89409614
208.607	47.36404945
208.821	49.25856156
209.035	50.44948734
209.249	50.82291616
209.463	52.88513747
209.677	53.16504667
209.891	57.02508071
210.104	56.10501528
210.318	58.31491034
210.532	62.38130022
210.746	59.60788092
210.96	60.10296641
211.174	60.38226373
211.387	63.88280528
211.601	61.32691328
211.815	57.15455662
212.029	55.3514414
212.243	54.70701024
212.456	53.46515918
212.67	54.90669889
212.884	54.95491372
213.098	56.44676622
213.311	52.6692739
213.525	53.43554531
213.739	55.65737969
213.953	53.34490159
214.166	52.88388168
214.38	53.56441262
214.594	47.97355432
214.807	47.94898467
215.021	45.5081731
215.235	50.52199681
215.448	52.5005637
215.662	50.52825391
215.876	48.54016177
216.089	48.3917807
216.303	51.01848105
216.516	52.22806165
216.73	51.17118666
216.944	50.73556991
217.157	48.97526202
217.371	46.36120814
217.584	46.71924417
217.798	49.96233596
218.011	49.65732836
218.225	47.11510462
218.439	48.54529653
218.652	46.55310875
218.866	42.20183486
219.079	46.24052363
219.293	47.33762191
219.506	46.07678095
219.719	44.82468443
219.933	44.34299815
220.146	45.20936534
220.36	45.26840066
220.573	42.94437192
220.787	43.65390164
221	41.71341988
221.214	43.31215551
221.427	42.16541353
221.64	42.56706813
221.854	43.37741071
222.067	42.08717113
222.28	42.31094494
222.494	41.43240509
222.707	40.50753097
222.92	39.98272511
223.134	41.16280052
223.347	43.92951764
223.56	41.99499555
223.774	39.92984507
223.987	41.65759665
224.2	41.12187086
224.414	39.80867997
224.627	38.99222051
224.84	40.43198928
225.053	42.58558101
225.267	42.27124376
225.48	43.65621778
225.693	42.57738471
225.906	42.73866501
226.119	41.13494906
226.333	43.05758451
226.546	42.74041913
226.759	42.52498141
226.972	43.68928947
227.185	45.49873005
227.398	46.36657308
227.612	47.40931865
227.825	44.67576892
228.038	45.90343713
228.251	47.61467627
228.464	46.27922434
228.677	45.67149948
228.89	45.22734116
229.103	42.65747151
229.316	41.05654571
229.529	39.52567175
229.743	38.7913514
229.956	38.40257968
230.169	36.08109097
230.382	36.27906977
230.595	37.16061344
230.808	35.91705349
231.021	37.70880897
231.234	36.18669135
231.447	35.9329462
231.66	34.54192364
231.872	33.56263806
232.085	33.46043268
232.298	34.37050466
232.511	34.84798446
232.724	35.16305066
232.937	35.27882491
233.15	35.72895277
233.363	35.90702357
233.576	37.07500307
233.789	36.47036804
234.002	37.35495364
234.214	37.61922438
234.427	37.03316472
234.64	37.81214974
234.853	37.87749184
235.066	36.75731661
235.279	36.07001939
235.491	34.86713522
235.704	35.19315434
235.917	34.85105726
236.13	35.1867577
236.342	35.26651952
236.555	35.2367028
236.768	34.78302309
236.981	33.90333911
237.193	32.65336621
237.406	31.57585185
237.619	30.50383391
237.832	30.08390231
238.044	29.9623805
238.257	30.08362191
238.47	29.27575026
238.682	28.99194463
238.895	29.05769988
239.108	28.99094297
239.32	28.53272615
239.533	28.61182966
239.746	28.24414884
239.958	28.10246131
240.171	27.94230038
240.383	27.72935561
240.596	27.41031485
240.808	27.00517791
241.021	26.69975062
241.234	26.67451921
241.446	26.63965082
241.659	26.64303656
241.871	26.94622536
242.084	27.03817751
242.296	27.11296156
242.509	26.92987291
242.721	26.89242468
242.934	26.96730729
243.146	26.83004249
243.359	26.70135829
243.571	26.65720646
243.784	26.66139309
243.996	26.60538141
244.208	26.83165394
244.421	26.78027455
244.633	26.75610194
244.846	26.75109495
245.058	26.80794518
245.27	26.81695869
245.483	26.80517707
245.695	26.82914481
245.907	26.73790519
246.12	26.72532106
246.332	26.66930446
246.544	26.69814985
246.757	26.61417458
246.969	26.65129545
247.181	26.52843537
247.394	26.60812246
247.606	26.59597041
247.818	26.66927833
248.03	26.68797076
248.243	26.7023364
248.455	26.79660838
248.667	26.70874438
248.879	26.730758
249.092	26.75336727
249.304	26.77272952
249.516	26.72705793
249.728	26.77043591
249.94	26.79761009
250.153	26.8159843
250.365	26.92461115
250.577	26.98098745
250.789	26.86322277
251.001	26.86383002
251.213	26.90703664
251.425	26.87320028
251.637	26.88667309
251.85	26.77350404
252.062	26.86618523
252.274	26.76505174
252.486	26.74819647
252.698	26.77077578
252.91	26.67533433
253.122	26.65285899
253.334	26.59094667
253.546	26.48061532
253.758	26.43959755
253.97	26.37236115
254.182	26.25410466
254.394	26.26239147
254.606	26.14725819
254.818	26.02079537
255.03	25.87355099
255.242	25.88036701
255.454	25.83532766
255.666	25.72708986
255.877	25.69186073
256.089	25.65358421
256.301	25.62408431
256.513	25.58331122
256.725	25.52567603
256.937	25.51651404
257.149	25.49814023
257.361	25.45897727
257.572	25.43201208
257.784	25.41361889
257.996	25.45301168
258.208	25.407026
258.42	25.38757095
258.631	25.40905707
258.843	25.33452475
259.055	25.32583255
259.267	25.37275915
259.479	25.40811216
259.69	25.46323938
259.902	25.44876912
260.114	25.53217306
260.325	25.57598942
260.537	25.70191622
260.749	25.76713895
260.961	25.83001182
261.172	25.88642584
261.384	25.88624534
261.596	25.94941895
261.807	26.02490184
262.019	26.08505086
262.23	26.1672379
262.442	26.18124149
262.654	26.29792889
262.865	26.46484006
263.077	26.51258572
263.288	26.66401844
263.5	26.74105962
263.712	26.74861346
263.923	26.86658094
264.135	26.88956869
264.346	26.97879478
264.558	27.04239025
264.769	27.12148352
264.981	27.06192114
265.192	27.12491022
265.404	27.12697108
265.615	27.15714528
265.827	27.23381768
266.038	27.2715987
266.25	27.28725896
266.461	27.37002605
266.673	27.44354746
266.884	27.57540839
267.095	27.57354724
267.307	27.57679399
267.518	27.651141
267.73	27.70741851
267.941	27.78227216
268.152	27.87759349
268.364	27.94406293
268.575	28.06616264
268.786	28.17599997
268.998	28.22853856
269.209	28.30228354
269.42	28.44309368
269.632	28.50839393
269.843	28.61463181
270.054	28.75624018
270.265	28.84302654
270.477	28.91603569
270.688	29.03955253
270.899	29.12482908
271.11	29.19089106
271.322	29.24821801
271.533	29.36852692
271.744	29.49522781
271.955	29.64551782
272.166	29.72054928
272.378	29.85582975
272.589	29.90384925
272.8	29.96429276
273.011	30.04705182
273.222	30.1046099
273.433	30.21677902
273.644	30.25938826
273.856	30.23868587
274.067	30.32532082
274.278	30.39339155
274.489	30.42797756
274.7	30.47629432
274.911	30.58121518
275.122	30.6364315
275.333	30.6446509
275.544	30.73661714
275.755	30.76770621
275.966	30.8080952
276.177	30.81536285
276.388	30.84440852
276.599	30.89381591
276.81	30.9621666
277.021	31.09436858
277.232	31.13381237
277.443	31.14054152
277.654	31.1956518
277.865	31.23143958
278.076	31.30120987
278.287	31.35648722
278.497	31.3690946
278.708	31.39682381
278.919	31.41617967
279.13	31.46895297
279.341	31.48301155
279.552	31.47822548
279.763	31.55746055
279.973	31.53954059
280.184	31.59099122
280.395	31.58221051
280.606	31.60429563
280.817	31.65998301
281.027	31.7219881
281.238	31.6849652
281.449	31.6653585
281.66	31.70867459
281.87	31.75590619
282.081	31.76560946
282.292	31.78646721
282.503	31.79876571
282.713	31.82903857
282.924	31.92698303
283.135	31.93108262
283.345	31.97279795
283.556	31.95835555
283.767	31.97166895
283.977	31.9709991
284.188	31.97784456
284.399	32.01519745
284.609	32.01755462
284.82	32.11122888
285.03	32.17154148
285.241	32.13730005
285.451	32.1392274
285.662	32.20745338
285.873	32.26024114
286.083	32.3047792
286.294	32.35524417
286.504	32.33960233
286.715	32.36354969
286.925	32.39357006
287.136	32.43654779
287.346	32.42757841
287.557	32.47582042
287.767	32.50235521
287.978	32.57636762
288.188	32.60574953
288.399	32.71979466
288.609	32.75858819
288.819	32.79101511
289.03	32.83502701
289.24	32.83445445
289.451	32.84224495
289.661	32.89682319
289.871	32.89887354
290.082	32.89106229
290.292	32.89774124
290.502	32.93199327
290.713	32.93301912
290.923	33.04241995
291.133	33.05196885
291.344	33.0430055
291.554	33.0733537
291.764	33.03642493
291.974	33.06779992
292.185	33.11256083
292.395	33.17460195
292.605	33.22110639
292.815	33.23087296
293.026	33.27381554
293.236	33.31722787
293.446	33.34131244
293.656	33.39871131
293.866	33.47094679
294.077	33.47259193
294.287	33.53304657
294.497	33.59229147
294.707	33.66463886
294.917	33.67395503
295.127	33.71494687
295.337	33.73975006
295.548	33.76402552
295.758	33.85646493
295.968	33.89563462
296.178	33.96873342
296.388	34.00331902
296.598	34.03237251
296.808	34.10577228
297.018	34.13591626
297.228	34.15706463
297.438	34.18373228
297.648	34.20117152
297.858	34.25526251
298.068	34.29405237
298.278	34.2736094
298.488	34.33058084
298.698	34.42512968
298.908	34.43942707
299.118	34.43372791
299.328	34.4792642
299.538	34.50224192
299.748	34.51080995
299.957	34.56301096
300.167	34.59205508
300.377	34.66333525
300.587	34.69832712
300.797	34.72359792
301.007	34.76897777
301.217	34.72452164
301.426	34.74504799
301.636	34.79865469
301.846	34.87539274
302.056	34.92262395
302.266	34.94531422
302.475	34.98594681
302.685	35.06932957
302.895	35.1390153
303.105	35.08765611
303.314	35.13161372
303.524	35.20145244
303.734	35.26928531
303.944	35.30544345
304.153	35.39799005
304.363	35.42115374
304.573	35.46984177
304.782	35.48771222
304.992	35.50730054
305.202	35.53585866
305.411	35.60551928
305.621	35.63268919
305.831	35.69085359
306.04	35.71582055
306.25	35.6992241
306.459	35.73258473
306.669	35.79309758
306.878	35.80882214
307.088	35.81384425
307.298	35.83932945
307.507	35.91345599
307.717	35.92813137
307.926	35.94170355
308.136	35.9027225
308.345	35.90776446
308.555	35.87914013
308.764	35.90380459
308.974	35.89660296
309.183	35.91033128
309.392	35.91298654
309.602	35.95400785
309.811	35.94154274
310.021	35.96243219
310.23	35.97720638
310.44	35.96102239
310.649	35.97389426
310.858	36.01736588
311.068	35.99063755
311.277	36.00495217
311.486	36.03156508
311.696	35.98673576
311.905	35.97432842
312.114	35.98548686
312.324	35.96851796
312.533	35.97325575
312.742	36.02954161
312.952	36.07735692
313.161	36.13161924
313.37	36.16715013
313.579	36.16127805
313.789	36.19504604
313.998	36.21485631
314.207	36.25412206
314.416	36.28674513
314.625	36.28485965
314.835	36.33847554
315.044	36.37086226
315.253	36.35214047
315.462	36.41301028
315.671	36.42171873
315.88	36.45857525
316.09	36.51240843
316.299	36.52423413
316.508	36.51932521
316.717	36.5581164
316.926	36.67302693
317.135	36.67577417
317.344	36.6373813
317.553	36.63461642
317.762	36.6075156
317.971	36.64504456
318.18	36.70256582
318.389	36.68062609
318.598	36.64103386
318.807	36.6174376
319.016	36.62389458
319.225	36.62187963
319.434	36.61072678
319.643	36.6476416
319.852	36.62995833
320.061	36.60441144
320.27	36.59815624
320.479	36.64411624
320.688	36.65359894
320.897	36.64049425
321.105	36.65992482
321.314	36.58972906
321.523	36.51765706
321.732	36.5287872
321.941	36.48591367
322.15	36.53394581
322.359	36.56996777
322.567	36.49861958
322.776	36.50216813
322.985	36.48633725
323.194	36.46596477
323.403	36.48887339
323.611	36.49119202
323.82	36.45632334
324.029	36.39694635
324.237	36.41131454
324.446	36.45423296
324.655	36.42428826
324.864	36.41167661
325.072	36.42335488
325.281	36.41485114
325.49	36.39712136
325.698	36.38694207
325.907	36.41614245
326.116	36.40794927
326.324	36.41140249
326.533	36.35221115
326.741	36.32083088
326.95	36.34880669
327.159	36.34967612
327.367	36.37298206
327.576	36.41917802
327.784	36.4298532
327.993	36.42850843
328.201	36.45860724
328.41	36.53130868
328.618	36.52553961
328.827	36.49858854
329.035	36.48174388
329.244	36.48251529
329.452	36.48019712
329.661	36.54280592
329.869	36.55481873
330.078	36.59440673
330.286	36.61706434
330.495	36.58062634
330.703	36.60076532
330.911	36.63817354
331.12	36.63453169
331.328	36.64826825
331.537	36.62314634
331.745	36.60201381
331.953	36.62186292
332.162	36.59419997
332.37	36.59531249
332.578	36.62665863
332.787	36.57681461
332.995	36.56830419
333.203	36.59089339
333.411	36.64865575
333.62	36.71312307
333.828	36.72811197
334.036	36.71729034
334.244	36.71545407
334.453	36.69140537
334.661	36.68347776
334.869	36.68508321
335.077	36.68582684
335.285	36.70867934
335.494	36.69982356
335.702	36.67815215
335.91	36.76167904
336.118	36.79635362
336.326	36.7541198
336.534	36.76746285
336.742	36.79588893
336.951	36.77722429
337.159	36.77086863
337.367	36.75240693
337.575	36.75376233
337.783	36.72791125
337.991	36.67404901
338.199	36.66066
338.407	36.69167782
338.615	36.71030963
338.823	36.72549028
339.031	36.74583718
339.239	36.78481785
339.447	36.79286258
339.655	36.77013262
339.863	36.77502867
340.071	36.83254104
340.279	36.80986147
340.487	36.80818837
340.695	36.86312172
340.903	36.85819289
341.11	36.87161855
341.318	36.86731381
341.526	36.94053542
341.734	36.99078998
341.942	37.00452145
342.15	37.06530514
342.358	37.04392997
342.565	37.06600891
342.773	37.03903749
342.981	37.06040808
343.189	37.04734096
343.397	37.08174559
343.604	37.09159453
343.812	37.11687127
344.02	37.14141016
344.228	37.12137732
344.435	37.11551597
344.643	37.14016538
344.851	37.15749628
345.058	37.15063998
345.266	37.18991639
345.474	37.21222484
345.681	37.2703022
345.889	37.31235228
346.097	37.34961401
346.304	37.32699619
346.512	37.33161041
346.72	37.35724671
346.927	37.35173757
347.135	37.38928628
347.342	37.38702646
347.55	37.44456108
347.758	37.43924899
347.965	37.48843201
348.173	37.50254226
348.38	37.47963847
348.588	37.56186498
348.795	37.5890576
349.003	37.6228722
349.21	37.67169624
349.418	37.69342014
349.625	37.73876583
349.833	37.73629822
350.04	37.71231619
350.247	37.65513235
350.455	37.64857088
350.662	37.70330684
350.87	37.63561814
351.077	37.64161222
351.284	37.6732827
351.492	37.69618403
351.699	37.73104728
351.906	37.69308952
352.114	37.71148008
352.321	37.69179107
352.528	37.67425365
352.736	37.66581793
352.943	37.63517575
353.15	37.64961516
353.358	37.59840627
353.565	37.53767566
353.772	37.50743756
353.979	37.42165911
354.187	37.40293133
354.394	37.37994895
354.601	37.36838768
354.808	37.33205752
355.015	37.28186895
355.223	37.28122085
355.43	37.2668956
355.637	37.23252169
355.844	37.17578769
356.051	37.09959006
356.258	37.11315054
356.465	37.06779179
356.673	37.03549663
356.88	37.03475869
357.087	37.04065929
357.294	37.05340056
357.501	37.02081915
357.708	36.97522431
357.915	36.96788075
358.122	36.94957063
358.329	36.92822059
358.536	36.89296675
358.743	36.87528755
358.95	36.83892606
359.157	36.80508101
359.364	36.78788379
359.571	36.76660228
359.778	36.73244556
359.985	36.71755921
360.192	36.70821632
360.399	36.71624556
360.606	36.65185877
360.812	36.64429175
361.019	36.62506308
361.226	36.59548289
361.433	36.53372985
361.64	36.47757836
361.847	36.41621255
362.054	36.42334889
362.26	36.40000417
362.467	36.3541749
362.674	36.33872533
362.881	36.30287829
363.088	36.28108801
363.294	36.24609465
363.501	36.2112682
363.708	36.19052623
363.915	36.17872111
364.121	36.17101869
364.328	36.11987602
364.535	36.10393867
364.741	36.02180321
364.948	35.99827075
365.155	35.95397138
365.361	35.9405734
365.568	35.8650606
365.775	35.89901213
365.981	35.86293943
366.188	35.84254132
366.395	35.77951828
366.601	35.72649186
366.808	35.70457751
367.014	35.65426578
367.221	35.61520196
367.427	35.58770634
367.634	35.58226064
367.84	35.53438383
368.047	35.48325797
368.254	35.4200798
368.46	35.37861004
368.667	35.34727483
368.873	35.24092948
369.079	35.23275468
369.286	35.20822441
369.492	35.17303643
369.699	35.11572243
369.905	35.09511309
370.112	35.00702309
370.318	34.94378552
370.524	34.89084532
370.731	34.83212777
370.937	34.80327911
371.144	34.74437992
371.35	34.69303311
371.556	34.64136306
371.763	34.60263267
371.969	34.49977666
372.175	34.46599096
372.381	34.40605714
372.588	34.35202719
372.794	34.29127522
373	34.24966796
373.206	34.24528203
373.413	34.18785952
373.619	34.14593248
373.825	34.09077707
374.031	34.04287668
374.238	33.99823887
374.444	33.96563694
374.65	33.9246396
374.856	33.89588207
375.062	33.86860678
375.268	33.82989138
375.475	33.80917655
375.681	33.79297774
375.887	33.75873922
376.093	33.70497512
376.299	33.69808028
376.505	33.64609908
376.711	33.60490057
376.917	33.577302
377.123	33.53957076
377.329	33.47686365
377.535	33.40694121
377.741	33.33810748
377.947	33.2985423
378.153	33.26834697
378.359	33.22841078
378.565	33.21235515
378.771	33.13379426
378.977	33.11763517
379.183	33.07381258
379.389	33.04498427
379.595	33.00889376
379.801	32.96112167
380.007	32.90277006
380.213	32.86141003
380.418	32.81937897
380.624	32.78893965
380.83	32.75538137
381.036	32.74154588
381.242	32.70999683
381.448	32.67472038
381.653	32.64270567
381.859	32.62203117
382.065	32.60788334
382.271	32.55231485
382.476	32.4781091
382.682	32.43443243
382.888	32.3674812
383.094	32.36621281
383.299	32.30750902
383.505	32.25311771
383.711	32.20763069
383.916	32.10007352
384.122	32.0476546
384.328	31.99195466
384.533	31.94233221
384.739	31.91207183
384.945	31.84365789
385.15	31.78202893
385.356	31.73010895
385.562	31.6719523
385.767	31.60011493
385.973	31.53596649
386.178	31.48711473
386.384	31.44199646
386.589	31.41449725
386.795	31.39456577
387	31.36112676
387.206	31.31100366
387.411	31.23376166
387.617	31.18107121
387.822	31.14558839
388.028	31.07070875
388.233	31.08079365
388.439	31.05243432
388.644	31.00867096
388.85	30.98061967
389.055	30.91535105
389.26	30.8691818
389.466	30.85124742
389.671	30.79883917
389.877	30.74034083
390.082	30.71132892
390.287	30.67104609
390.493	30.62503789
390.698	30.59455318
390.903	30.53264806
391.109	30.48642992
391.314	30.4483436
391.519	30.41034063
391.724	30.36270725
391.93	30.31227888
392.135	30.27062441
392.34	30.24483557
392.545	30.193393
392.751	30.13501712
392.956	30.11461762
393.161	30.07496798
393.366	30.04697286
393.571	30.00585186
393.776	29.95289747
393.982	29.90189373
394.187	29.88452586
394.392	29.81702457
394.597	29.79147148
394.802	29.76184083
395.007	29.71326
395.212	29.68429333
395.417	29.61895793
395.622	29.55988678
395.827	29.54065477
396.032	29.53369331
396.237	29.50277479
396.442	29.46530452
396.647	29.41561042
396.852	29.36891535
397.057	29.33282607
397.262	29.28649607
397.467	29.23566328
397.672	29.16576396
397.877	29.12605826
398.082	29.08796365
398.287	29.06252625
398.492	29.00125737
398.697	28.98277563
398.902	28.94453545
399.107	28.90230688
399.311	28.86034314
399.516	28.79173317
399.721	28.77264587
399.926	28.72711787
400.131	28.65698498
400.336	28.61530389
400.54	28.59954291
400.745	28.54654541
400.95	28.50784836
401.155	28.47102427
401.359	28.43570351
401.564	28.39413744
401.769	28.33318698
401.974	28.31128174
402.178	28.28076156
402.383	28.26009836
402.588	28.21636482
402.792	28.19723678
402.997	28.14215257
403.202	28.0980354
403.406	28.05232669
403.611	28.01176241
403.815	27.98580649
404.02	27.96713175
404.225	27.93577251
404.429	27.89587853
404.634	27.84402864
404.838	27.80957263
405.043	27.77408371
405.247	27.75174805
405.452	27.71724889
405.656	27.68389817
405.861	27.65846005
406.065	27.63280565
406.27	27.60047446
406.474	27.57620068
406.679	27.51520567
406.883	27.49220832
407.088	27.4481668
407.292	27.43916074
407.497	27.40377772
407.701	27.36325378
407.905	27.32868665
408.11	27.32033492
408.314	27.26050109
408.518	27.21569494
408.723	27.19562575
408.927	27.173743
409.131	27.13987036
409.336	27.14276561
409.54	27.10605581
409.744	27.07306077
409.949	27.02706905
410.153	26.98598865
410.357	26.96522027
410.561	26.90855235
410.766	26.84851591
410.97	26.82193824
411.174	26.77827674
411.378	26.72898709
411.582	26.67296668
411.787	26.62746628
411.991	26.59926194
412.195	26.55910998
412.399	26.51764962
412.603	26.48958421
412.807	26.46805974
413.011	26.43300049
413.215	26.37939042
413.419	26.29668353
413.624	26.22698662
413.828	26.20361606
414.032	26.17226935
414.236	26.12358309
414.44	26.08451928
414.644	26.04272384
414.848	26.01388619
415.052	25.99941063
415.256	25.9548651
415.46	25.92562926
415.664	25.9199961
415.868	25.89025878
416.072	25.86838793
416.275	25.84160494
416.479	25.81167131
416.683	25.77612135
416.887	25.73311271
417.091	25.70759949
417.295	25.67308763
417.499	25.64719085
417.703	25.6309944
417.906	25.61622487
418.11	25.59353626
418.314	25.5724044
418.518	25.56983039
418.722	25.54254908
418.925	25.51246072
419.129	25.5074924
419.333	25.48067691
419.537	25.45845809
419.74	25.4355924
419.944	25.40620338
420.148	25.38783497
420.352	25.36919303
420.555	25.33644893
420.759	25.32158504
420.963	25.30494491
421.166	25.30017091
421.37	25.28851926
421.573	25.2704162
421.777	25.24577194
421.981	25.22733683
422.184	25.19790131
422.388	25.17638117
422.591	25.14590935
422.795	25.11873683
422.999	25.09744144
423.202	25.0895685
423.406	25.05487854
423.609	25.04305629
423.813	25.02687421
424.016	25.00996139
424.22	24.98771214
424.423	24.97856335
424.627	24.95780908
424.83	24.95107825
425.033	24.93038108
425.237	24.89400267
425.44	24.86737593
425.644	24.82995198
425.847	24.80072468
426.05	24.79167215
426.254	24.77110653
426.457	24.75464392
426.66	24.73523982
426.864	24.71034188
427.067	24.68787517
427.27	24.67959105
427.474	24.65249914
427.677	24.63774945
427.88	24.59467926
428.084	24.57419426
428.287	24.55626702
428.49	24.53896813
428.693	24.50135563
428.896	24.47442923
429.1	24.45613505
429.303	24.4480855
429.506	24.45433601
429.709	24.43575132
429.912	24.41961002
430.116	24.40977054
430.319	24.38462247
430.522	24.36760079
430.725	24.3478656
430.928	24.33072383
431.131	24.31591807
431.334	24.30714508
431.537	24.27060161
431.74	24.25555791
431.943	24.24093784
432.146	24.23818063
432.349	24.21868858
432.552	24.20854992
432.755	24.17592596
432.958	24.15205993
433.161	24.13897975
433.364	24.10160976
433.567	24.08514675
433.77	24.04259495
433.973	24.0231775
434.176	23.99559576
434.379	23.98404389
434.582	23.95870573
434.785	23.94016618
434.988	23.91085366
435.19	23.89145808
435.393	23.86838364
435.596	23.85166933
435.799	23.84129628
436.002	23.81955399
436.205	23.80381894
436.407	23.77448978
436.61	23.769815
436.813	23.74023584
437.016	23.7367174
437.218	23.72800077
437.421	23.71225122
437.624	23.69151327
437.827	23.66306972
438.029	23.65573437
438.232	23.6301659
438.435	23.6279438
438.637	23.6058566
438.84	23.59508469
439.043	23.57536198
439.245	23.57485133
439.448	23.56424822
439.65	23.56686241
439.853	23.54097558
440.056	23.52139748
440.258	23.5179014
440.461	23.49980956
440.663	23.49393293
440.866	23.47217754
441.068	23.45729461
441.271	23.43603322
441.473	23.42340572
441.676	23.41403478
441.878	23.4004319
442.081	23.39302932
442.283	23.38259309
442.486	23.36520503
442.688	23.33975088
442.89	23.3305749
443.093	23.31634447
443.295	23.31143248
443.498	23.29331733
443.7	23.27042379
443.902	23.24368488
444.105	23.24085981
444.307	23.23471477
444.509	23.21535725
444.712	23.20675073
444.914	23.19643013
445.116	23.19224544
445.319	23.18815988
445.521	23.18916438
445.723	23.18925769
445.925	23.1804848
446.128	23.19079266
446.33	23.18155196
446.532	23.16190242
446.734	23.16740048
446.936	23.17131286
447.139	23.16820969
447.341	23.16928434
447.543	23.17481976
447.745	23.18943871
447.947	23.17614744
448.149	23.17518819
448.351	23.17204911
448.553	23.18368646
448.755	23.18812484
448.958	23.18324163
449.16	23.17990286
449.362	23.16240602
449.564	23.16289913
449.766	23.14689618
449.968	23.13667288
450.17	23.14108218
450.372	23.1392349
450.574	23.13589562
450.776	23.15098119
450.978	23.15686544
451.179	23.15666754
451.381	23.16795753
451.583	23.16286275
451.785	23.16505669
451.987	23.15458263
452.189	23.16488782
452.391	23.18566574
452.593	23.17951725
452.795	23.15747085
452.996	23.16598899
453.198	23.17603506
453.4	23.18588031
453.602	23.20698072
453.804	23.19858435
454.005	23.2091118
454.207	23.2148121
454.409	23.20858604
454.611	23.19949124
454.812	23.19534115
455.014	23.17885613
455.216	23.17484463
455.417	23.17963243
455.619	23.15995756
455.821	23.15570039
456.022	23.14136108
456.224	23.1205643
456.426	23.12613913
456.627	23.11686168
456.829	23.1129876
457.031	23.11403506
457.232	23.08874124
457.434	23.0848153
457.635	23.05946536
457.837	23.04277043
458.038	23.04042677
458.24	23.03346794
458.441	23.02340078
458.643	23.01219554
458.844	23.00600578
459.046	23.00548062
459.247	23.01280057
459.449	23.01081878
459.65	22.98602046
459.852	22.986431
460.053	22.98259794
460.254	22.9879108
460.456	22.98637774
460.657	22.97383887
460.859	22.96606533
461.06	22.97036866
461.261	22.97349021
461.463	22.97193042
461.664	22.96234557
461.865	22.97282969
462.066	22.99172227
462.268	22.98856447
462.469	22.98350703
462.67	22.98253791
462.872	22.97010486
463.073	22.97170663
463.274	22.96293774
463.475	22.94533359
463.676	22.93712055
463.878	22.9431394
464.079	22.93167962
464.28	22.9375887
464.481	22.92718134
464.682	22.93377521
464.883	22.93466482
465.085	22.92822501
465.286	22.92797359
465.487	22.93304771
465.688	22.93523769
465.889	22.93934386
466.09	22.9425778
466.291	22.92577721
466.492	22.92105007
466.693	22.93075489
466.894	22.93253451
467.095	22.94924632
467.296	22.95122229
467.497	22.95076993
467.698	22.96018172
467.899	22.96176887
468.1	22.96572501
468.301	22.96342764
468.502	22.96395255
468.703	22.95912434
468.903	22.95431982
469.104	22.95763677
469.305	22.9674596
469.506	22.9652681
469.707	22.95818575
469.908	22.96928288
470.109	22.95686434
470.309	22.96648096
470.51	22.96781268
470.711	22.96706488
470.912	22.96492208
471.112	22.95162087
471.313	22.94437151
471.514	22.94981306
471.715	22.95146881
471.915	22.9574933
472.116	22.96079214
472.317	22.96526095
472.517	22.99405936
472.718	22.99587888
472.919	22.99904027
473.119	23.01195854
473.32	23.01481938
473.521	23.02811661
473.721	23.05029292
473.922	23.06962807
474.122	23.0766539
474.323	23.09429756
474.523	23.11268698
474.724	23.13469196
474.925	23.15363831
475.125	23.17433535
475.326	23.21493501
475.526	23.23145013
475.727	23.25971974
475.927	23.29182988
476.127	23.317096
476.328	23.33685383
476.528	23.36464989
476.729	23.37421591
476.929	23.4070288
477.13	23.4387301
477.33	23.46735451
477.53	23.50555727
477.731	23.52656418
477.931	23.535175
478.131	23.55652509
478.332	23.5838547
478.532	23.62701041
478.732	23.65406249
478.933	23.68428777
479.133	23.72766856
479.333	23.76108449
479.533	23.80564812
479.734	23.86388327
479.934	23.90435281
480.134	23.95029214
480.334	24.0023683
480.534	24.05490072
480.735	24.10079248
480.935	24.15343165
481.135	24.1949355
481.335	24.2361661
481.535	24.27958482
481.735	24.31873204
481.935	24.3656035
482.136	24.41618052
482.336	24.46816933
482.536	24.52858328
482.736	24.58021526
482.936	24.63883754
483.136	24.69064982
483.336	24.74126814
483.536	24.80508514
483.736	24.85797365
483.936	24.91094868
484.136	24.96223758
484.336	25.01016792
484.536	25.05730339
484.736	25.10378499
484.936	25.15326075
485.135	25.19689547
485.335	25.23503399
485.535	25.27807684
485.735	25.3243765
485.935	25.36220092
486.135	25.4055415
486.335	25.45358856
486.534	25.49709799
486.734	25.54024756
486.934	25.58834926
487.134	25.62324377
487.334	25.67102401
487.533	25.72839064
487.733	25.76571051
487.933	25.81117938
488.133	25.85621891
488.332	25.9069569
488.532	25.95892528
488.732	26.00799067
488.931	26.06192428
489.131	26.11637914
489.331	26.17965157
489.53	26.24697859
489.73	26.31088074
489.93	26.3727939
490.129	26.44517602
490.329	26.51098632
490.528	26.56696431
490.728	26.62762577
490.928	26.68181791
491.127	26.7386711
491.327	26.80083683
491.526	26.86774029
491.726	26.92376478
491.925	27.00113467
492.125	27.07377685
492.324	27.14114873
492.524	27.21762069
492.723	27.29681324
492.922	27.37698968
493.122	27.44955267
493.321	27.5299931
493.521	27.60273226
493.72	27.69357629
493.919	27.78798616
494.119	27.874575
494.318	27.96304268
494.517	28.0486564
494.717	28.14657408
494.916	28.2520454
495.115	28.35508619
495.315	28.44899103
495.514	28.55811513
495.713	28.65813114
495.912	28.75886491
496.112	28.84983993
496.311	28.95908848
496.51	29.07326391
496.709	29.16883059
496.908	29.26190718
497.108	29.3608756
497.307	29.46306125
497.506	29.54417868
497.705	29.65098419
497.904	29.73620153
498.103	29.81945552
498.302	29.91615235
498.501	30.00871619
498.701	30.10949868
498.9	30.19778736
499.099	30.27589398
499.298	30.3630114
499.497	30.45397448
499.696	30.53120078
499.895	30.6205008
500.094	30.70561008
500.293	30.79079012
500.492	30.85809205
500.691	30.93256673
500.89	30.9985427
501.088	31.0787415
501.287	31.15598208
501.486	31.22140532
501.685	31.31621242
501.884	31.3780673
502.083	31.44249496
502.282	31.50619242
502.481	31.57112549
502.679	31.64111526
502.878	31.70642164
503.077	31.78041574
503.276	31.85063171
503.475	31.91378653
503.673	31.98302704
503.872	32.05240122
504.071	32.10953552
504.27	32.164063
504.468	32.22276515
504.667	32.26776717
504.866	32.31937438
505.064	32.3730272
505.263	32.42157662
505.462	32.48645506
505.66	32.54645672
505.859	32.58563639
506.058	32.63425654
506.256	32.68730858
506.455	32.73877692
506.653	32.78687194
506.852	32.83435227
507.05	32.86877923
507.249	32.89945674
507.448	32.92293986
507.646	32.96356668
507.845	33.00604876
508.043	33.04746189
508.242	33.07450411
508.44	33.11465889
508.638	33.15333241
508.837	33.20303853
509.035	33.22963382
509.234	33.25398978
509.432	33.28569171
509.631	33.28594932
509.829	33.31310415
510.027	33.33275866
510.226	33.35278144
510.424	33.37725533
510.622	33.39578257
510.821	33.40150381
511.019	33.41083458
511.217	33.43524656
511.415	33.4590624
511.614	33.49015314
511.812	33.51300028
512.01	33.52241945
512.208	33.53777856
512.407	33.55432481
512.605	33.5667177
512.803	33.58029532
513.001	33.59506306
513.199	33.60703867
513.398	33.64481773
513.596	33.66029944
513.794	33.70012847
513.992	33.72912448
514.19	33.76493081
514.388	33.79732387
514.586	33.82207104
514.784	33.85623089
514.982	33.89240798
515.18	33.93325664
515.378	33.95796225
515.576	33.99125547
515.774	34.01882728
515.972	34.04163395
516.17	34.07285553
516.368	34.10350079
516.566	34.14694363
516.764	34.18609619
516.962	34.19916559
517.16	34.21357073
517.358	34.24766765
517.556	34.28059418
517.754	34.31672934
517.952	34.35084149
518.149	34.38062369
518.347	34.40773285
518.545	34.4357542
518.743	34.47105071
518.941	34.49678504
519.138	34.52618516
519.336	34.56033242
519.534	34.59104534
519.732	34.62295098
519.929	34.65435365
520.127	34.7003386
520.325	34.71989462
520.523	34.75275967
520.72	34.78808399
520.918	34.8160481
521.116	34.86398594
521.313	34.91376688
521.511	34.97596967
521.709	35.01114936
521.906	35.05955128
522.104	35.11212189
522.301	35.16278494
522.499	35.2167934
522.696	35.26409724
522.894	35.32012255
523.092	35.39211555
523.289	35.46812689
523.487	35.5330887
523.684	35.6140095
523.882	35.69649533
524.079	35.78577382
524.276	35.87776348
524.474	35.98646798
524.671	36.06851194
524.869	36.15698383
525.066	36.25149911
525.264	36.35132463
525.461	36.44412954
525.658	36.52778781
525.856	36.61782676
526.053	36.70081047
526.25	36.77348496
526.448	36.85133747
526.645	36.94677222
526.842	37.02450822
527.039	37.1002114
527.237	37.15452716
527.434	37.21548453
527.631	37.28998543
527.828	37.3571133
528.026	37.41422707
528.223	37.47053423
528.42	37.52881488
528.617	37.59444684
528.814	37.67495115
529.012	37.74545432
529.209	37.81341137
529.406	37.88243605
529.603	37.9453051
529.8	38.00895265
529.997	38.07597395
530.194	38.15287308
530.391	38.21323011
530.588	38.28812137
530.785	38.33643427
530.982	38.41262334
531.179	38.47704826
531.376	38.55433689
531.573	38.63351513
531.77	38.69830121
531.967	38.76596563
532.164	38.84868748
532.361	38.93938393
532.558	39.00891944
532.755	39.07536173
532.952	39.15105866
533.149	39.22120019
533.346	39.29722396
533.543	39.37640529
533.739	39.46762857
533.936	39.55393552
534.133	39.64418096
534.33	39.72476648
534.527	39.83342876
534.723	39.91599849
534.92	40.02105071
535.117	40.12336533
535.314	40.22782127
535.51	40.34136011
535.707	40.45531803
535.904	40.58630664
536.1	40.7186361
536.297	40.85341226
536.494	40.99633388
536.69	41.16027998
536.887	41.31794939
537.084	41.48465852
537.28	41.66320342
537.477	41.84780841
537.674	42.02559021
537.87	42.19136269
538.067	42.37885905
538.263	42.56648024
538.46	42.7561951
538.656	42.94039215
538.853	43.13203717
539.049	43.31096429
539.246	43.50038688
539.442	43.6942446
539.639	43.87070652
539.835	44.04885775
540.032	44.21612217
540.228	44.3796516
540.424	44.53995741
540.621	44.68013645
540.817	44.82645521
541.014	44.99119519
541.21	45.12156705
541.406	45.25077849
541.603	45.37297537
541.799	45.50386107
541.995	45.65697998
542.191	45.7822651
542.388	45.89694717
542.584	46.01121641
542.78	46.13271222
542.976	46.24243931
543.173	46.36162569
543.369	46.47228476
543.565	46.5801939
543.761	46.69393287
543.957	46.79385547
544.154	46.9076651
544.35	47.03175271
544.546	47.14248602
544.742	47.26230289
544.938	47.37174215
545.134	47.48218022
545.33	47.58754869
545.526	47.70036819
545.722	47.82181914
545.919	47.93897693
546.115	48.03341155
546.311	48.14936142
546.507	48.26068712
546.703	48.39399879
546.899	48.51476225
547.095	48.65708904
547.29	48.79810669
547.486	48.92221845
547.682	49.05426596
547.878	49.20341333
548.074	49.34092607
548.27	49.4763103
548.466	49.63961356
548.662	49.79627288
548.858	49.96308379
549.053	50.11297305
549.249	50.25749382
549.445	50.42620402
549.641	50.59713643
549.837	50.76235043
550.032	50.91033946
550.228	51.08840471
550.424	51.24966498
550.62	51.40751813
550.815	51.56382604
551.011	51.71292753
551.207	51.8573798
551.402	52.00704962
551.598	52.1630089
551.794	52.32986424
551.989	52.46983151
552.185	52.63446216
552.381	52.80434593
552.576	52.92040845
552.772	53.04385246
552.967	53.17223223
553.163	53.32635749
553.359	53.46654528
553.554	53.60514414
553.75	53.7478968
553.945	53.89025219
554.141	54.04268567
554.336	54.15493825
554.532	54.26113044
554.727	54.40977101
554.922	54.52720464
555.118	54.64532739
555.313	54.78880586
555.509	54.92588548
555.704	55.05171761
555.899	55.16326601
556.095	55.30071544
556.29	55.42466198
556.486	55.54205667
556.681	55.67673089
556.876	55.83241516
557.071	55.94906027
557.267	56.08109489
557.462	56.20692698
557.657	56.37259171
557.853	56.48420905
558.048	56.60595809
558.243	56.72663285
558.438	56.85296274
558.633	57.01246488
558.829	57.16117947
559.024	57.28558966
559.219	57.41693483
559.414	57.53144301
559.609	57.63417008
559.804	57.77808906
559.999	57.92220539
560.194	58.04417376
560.39	58.16023232
560.585	58.27877897
560.78	58.3786139
560.975	58.48418284
561.17	58.60575815
561.365	58.73198001
561.56	58.85494828
561.755	58.94306426
561.95	59.06998954
562.145	59.18054231
562.34	59.29816342
562.535	59.39778415
562.729	59.47273955
562.924	59.54598117
563.119	59.62345499
563.314	59.72133417
563.509	59.80248957
563.704	59.8830193
563.899	59.94393495
564.093	60.01142623
564.288	60.07969094
564.483	60.15887023
564.678	60.21484233
564.873	60.29880331
565.067	60.36130494
565.262	60.42515315
565.457	60.48210971
565.652	60.56132647
565.846	60.60357168
566.041	60.66874434
566.236	60.71488666
566.43	60.76392379
566.625	60.85038069
566.82	60.9161238
567.014	60.97656927
567.209	61.06507927
567.404	61.15111487
567.598	61.23851256
567.793	61.32915955
567.987	61.408289
568.182	61.4620209
568.376	61.56949498
568.571	61.64708146
568.765	61.73694719
568.96	61.83965356
569.154	61.91461265
569.349	62.01496993
569.543	62.07910279
569.738	62.14819474
569.932	62.28819393
570.127	62.36781264
570.321	62.47089313
570.515	62.57345104
570.71	62.66636853
570.904	62.77034904
571.098	62.87257139
571.293	62.96908355
571.487	63.06275784
571.681	63.16162742
571.876	63.25894779
572.07	63.34552767
572.264	63.46806444
572.458	63.54816821
572.653	63.63592184
572.847	63.72021354
573.041	63.81315143
573.235	63.93432927
573.43	64.02634418
573.624	64.11905742
573.818	64.22015297
574.012	64.3094285
574.206	64.40762008
574.4	64.49875744
574.594	64.58365798
574.788	64.682333
574.983	64.78907351
575.177	64.8928925
575.371	64.98585845
575.565	65.07475324
575.759	65.17519604
575.953	65.28058155
576.147	65.41287108
576.341	65.52230891
576.535	65.60678628
576.729	65.72863875
576.923	65.86913409
577.117	65.9751166
577.31	66.08331734
577.504	66.21110423
577.698	66.3859259
577.892	66.52443989
578.086	66.63725015
578.28	66.78534564
578.474	66.96908542
578.668	67.15275802
578.861	67.35093946
579.055	67.51346153
579.249	67.70732369
579.443	67.92762181
579.636	68.13518698
579.83	68.33304064
580.024	68.53003505
580.218	68.76345394
580.411	68.99335974
580.605	69.24735397
580.799	69.52327751
580.992	69.76489349
581.186	70.00567087
581.38	70.27707611
581.573	70.564233
581.767	70.84769653
581.961	71.14357847
582.154	71.45179132
582.348	71.78388242
582.541	72.07191654
582.735	72.36649655
582.928	72.65707337
583.122	72.97558692
583.315	73.27714209
583.509	73.57501529
583.702	73.93530198
583.896	74.2787925
584.089	74.63920796
584.283	74.9579736
584.476	75.27716512
584.67	75.64148719
584.863	75.97029018
585.056	76.32245416
585.25	76.70871127
585.443	77.0733409
585.636	77.41115701
585.83	77.7659546
586.023	78.14732944
586.216	78.49514152
586.41	78.82933721
586.603	79.16959812
586.796	79.53046561
586.989	79.89717982
587.183	80.26857173
587.376	80.62044329
587.569	80.98466026
587.762	81.30045475
587.955	81.61520371
588.149	81.93242469
588.342	82.26380002
588.535	82.58018074
588.728	82.90098724
588.921	83.22935801
589.114	83.53404909
589.307	83.83416208
589.5	84.13087804
589.693	84.43878325
589.886	84.70350192
590.08	84.94584094
590.273	85.2176826
590.466	85.50167291
590.659	85.78970644
590.852	86.05362313
591.044	86.2870208
591.237	86.52740149
591.43	86.78297214
591.623	87.04852569
591.816	87.29596564
592.009	87.53600938
592.202	87.79394047
592.395	88.01370624
592.588	88.27715583
592.781	88.50165023
592.973	88.70244704
593.166	88.95372352
593.359	89.1588824
593.552	89.33696633
593.745	89.51469352
593.937	89.71465116
594.13	89.92335546
594.323	90.11623136
594.515	90.27548615
594.708	90.42859488
594.901	90.60266501
595.094	90.75883716
595.286	90.91956006
595.479	91.07015026
595.672	91.15580686
595.864	91.27391611
596.057	91.40992505
596.249	91.50566613
596.442	91.627242
596.635	91.7644762
596.827	91.89185632
597.02	92.01529283
597.212	92.10089811
597.405	92.19849533
597.597	92.31513791
597.79	92.41473542
597.982	92.53061624
598.175	92.60089055
598.367	92.70564179
598.559	92.79928164
598.752	92.8757323
598.944	92.92948376
599.137	93.00520622
599.329	93.064342
599.521	93.12245006
599.714	93.23925693
599.906	93.31550552
600.098	93.41025499
600.291	93.49968891
600.483	93.58817343
600.675	93.61018186
600.868	93.67349756
601.06	93.74049508
601.252	93.79614334
601.444	93.89643409
601.637	93.96837057
601.829	94.05384755
602.021	94.10152414
602.213	94.19141167
602.405	94.22224948
602.597	94.27204915
602.789	94.35578666
602.982	94.44919972
603.174	94.52583346
603.366	94.61224495
603.558	94.68140483
603.75	94.7296974
603.942	94.8177328
604.134	94.85871569
604.326	94.93341504
604.518	95.00409197
604.71	95.06854423
604.902	95.11878567
605.094	95.18068649
605.286	95.22834634
605.478	95.26353522
605.67	95.31855719
605.862	95.37487093
606.054	95.4168631
606.246	95.45624995
606.437	95.52413195
606.629	95.59045642
606.821	95.61942434
607.013	95.63156782
607.205	95.65090122
607.397	95.68378214
607.588	95.74047148
607.78	95.7581673
607.972	95.76435118
608.164	95.79973986
608.355	95.83995289
608.547	95.86683685
608.739	95.92129549
608.93	95.94038901
609.122	95.94605253
609.314	95.96700684
609.505	96.0021529
609.697	96.03085681
609.889	96.04229428
610.08	96.09306727
610.272	96.08681181
610.463	96.11645431
610.655	96.11218329
610.847	96.13118995
611.038	96.1669404
611.23	96.22393959
611.421	96.2174735
611.613	96.24280777
611.804	96.2923179
611.996	96.3189475
612.187	96.34121493
612.379	96.34829107
612.57	96.34232328
612.761	96.34269446
612.953	96.36226332
613.144	96.38933316
613.336	96.41585607
613.527	96.40151876
613.718	96.38742243
613.91	96.42880391
614.101	96.40277394
614.292	96.44400967
614.483	96.45429478
614.675	96.50123296
614.866	96.52113533
615.057	96.56908001
615.248	96.54159746
615.44	96.63537829
615.631	96.64532003
615.822	96.68814641
616.013	96.7166327
616.204	96.73940561
616.396	96.76811859
616.587	96.79991796
616.778	96.83297522
616.969	96.85803797
617.16	96.89432058
617.351	96.89538567
617.542	96.9576866
617.733	96.96312555
617.924	96.97108992
618.115	96.97749695
618.306	96.97149533
618.497	96.9655533
618.688	96.95928488
618.879	96.97715985
619.07	96.98012443
619.261	97.02953827
619.452	96.95837891
619.643	96.98574439
619.834	96.95021673
620.025	96.91656433
620.216	96.95412381
620.407	96.92167913
620.597	96.93155732
620.788	96.94551034
620.979	96.98369805
621.17	96.96542534
621.361	96.99780888
621.551	96.99006366
621.742	97.01722777
621.933	97.05080601
622.124	97.10794567
622.314	97.1757888
622.505	97.22672689
622.696	97.26908762
622.886	97.24155912
623.077	97.21932953
623.268	97.21277575
623.458	97.27110856
623.649	97.24166939
623.84	97.25030201
624.03	97.31393132
624.221	97.24581148
624.411	97.26779861
624.602	97.30112395
624.792	97.28206944
624.983	97.27908563
625.173	97.32998702
625.364	97.35575057
625.554	97.36717733
625.745	97.40724303
625.935	97.38634694
626.126	97.37421665
626.316	97.34192784
626.507	97.34659339
626.697	97.30824468
626.887	97.3451133
627.078	97.33244944
627.268	97.31980526
627.458	97.31118103
627.649	97.32713898
627.839	97.34195731
628.029	97.32036841
628.22	97.33280989
628.41	97.3170085
628.6	97.24504111
628.79	97.22831267
628.981	97.2270166
629.171	97.18263521
629.361	97.18853194
629.551	97.1814695
629.741	97.15697705
629.932	97.15284601
630.122	97.16739683
630.312	97.13015696
630.502	97.09579262
630.692	97.1022721
630.882	97.09713279
631.072	97.07092943
631.262	97.06314783
631.452	97.02983252
631.642	97.01781121
631.832	97.01840055
632.022	96.99746864
632.212	96.9946172
632.402	97.005645
632.592	97.03454506
632.782	97.01275422
632.972	96.96537824
633.162	96.95714909
633.352	96.95216277
633.542	96.92860616
633.732	96.89280692
633.922	96.85760209
634.111	96.87247665
634.301	96.89555888
634.491	96.88786453
634.681	96.86137521
634.871	96.84262893
635.06	96.88316584
635.25	96.91967624
635.44	96.95283293
635.63	96.96533424
635.819	96.94938534
636.009	96.95829871
636.199	96.98122275
636.388	96.95644993
636.578	96.97293478
636.768	97.03231366
636.957	97.07070127
637.147	97.09064236
637.337	97.11136985
637.526	97.10052461
637.716	97.16044493
637.905	97.19186825
638.095	97.16864621
638.284	97.22053909
638.474	97.2536201
638.663	97.28029799
638.853	97.29637295
639.042	97.2600658
639.232	97.24697724
639.421	97.24460751
639.611	97.25256663
639.8	97.24937073
639.99	97.26571329
640.179	97.27857613
640.368	97.32238223
640.558	97.34428492
640.747	97.3436686
640.936	97.35462261
641.126	97.37435959
641.315	97.3540117
641.504	97.40655793
641.694	97.38901108
641.883	97.41807782
642.072	97.44660374
642.261	97.46914404
642.451	97.45044657
642.64	97.47256749
642.829	97.50731226
643.018	97.61498138
643.207	97.64824174
643.397	97.67277864
643.586	97.66634608
643.775	97.68391856
643.964	97.7121141
644.153	97.73236811
644.342	97.76716312
644.531	97.78012982
644.72	97.79099816
644.909	97.80875433
645.098	97.82947388
645.287	97.83218412
645.476	97.85028794
645.665	97.84766055
645.854	97.85492326
646.043	97.87745047
646.232	97.8473035
646.421	97.8499793
646.61	97.89768046
646.799	97.94823025
646.988	97.94472885
647.177	97.98385195
647.365	97.99567183
647.554	98.01503419
647.743	98.03829581
647.932	98.08672911
648.121	98.08560305
648.309	98.06166358
648.498	98.03210705
648.687	98.0557307
648.876	98.05734064
649.064	98.03176307
649.253	98.04530187
649.442	98.03323646
649.63	98.05312179
649.819	98.03566938
650.008	97.97601008
650.196	97.99439819
650.385	98.04984146
650.574	98.02062235
650.762	98.01145891
650.951	98.00324583
651.139	97.98471431
651.328	97.98794502
651.516	97.97966222
651.705	98.01184636
651.893	97.93239145
652.082	97.95065414
652.27	97.97135831
652.459	97.99040692
652.647	97.93919933
652.836	97.97769288
653.024	98.02546401
653.213	98.03420834
653.401	98.06495507
653.589	98.10933592
653.778	98.12764999
653.966	98.17642236
654.154	98.18513333
654.343	98.18596315
654.531	98.20329633
654.719	98.16544628
654.908	98.15472764
655.096	98.18142524
655.284	98.1779716
655.472	98.20357671
655.661	98.20540414
655.849	98.23330586
656.037	98.23953772
656.225	98.28016139
656.413	98.25983558
656.601	98.33944904
656.79	98.31338042
656.978	98.29525722
657.166	98.32374356
657.354	98.25157622
657.542	98.27214332
657.73	98.23982201
657.918	98.24749075
658.106	98.23117776
658.294	98.21253027
658.482	98.20233189
658.67	98.24688993
658.858	98.22967088
659.046	98.26867769
659.234	98.29705662
659.422	98.27801252
659.61	98.29729887
659.798	98.28785397
659.986	98.24466644
660.173	98.21395561
660.361	98.25964952
660.549	98.23121967
660.737	98.23011619
660.925	98.21934789
661.113	98.18350343
661.3	98.24481141
661.488	98.22043192
661.676	98.28858772
661.864	98.28921877
662.051	98.27350704
662.239	98.26423984
662.427	98.31255418
662.614	98.27930288
662.802	98.30442729
662.99	98.22098821
663.177	98.18900275
663.365	98.19730361
663.553	98.16279691
663.74	98.19952719
663.928	98.24184343
664.115	98.23649436
664.303	98.25658471
664.49	98.25091409
664.678	98.22614814
664.866	98.2450279
665.053	98.26260033
665.24	98.27964041
665.428	98.24947622
665.615	98.2351868
665.803	98.21467151
665.99	98.21023413
666.178	98.24420106
666.365	98.19404256
666.552	98.22229479
666.74	98.24415768
666.927	98.2905458
667.114	98.34940001
667.302	98.33619052
667.489	98.3434124
667.676	98.33258497
667.864	98.337795
668.051	98.33159476
668.238	98.27997843
668.425	98.31933942
668.613	98.38594028
668.8	98.39925426
668.987	98.41011016
669.174	98.38878615
669.361	98.42141212
669.548	98.42277894
669.736	98.4333582
669.923	98.50276341
670.11	98.46195944
670.297	98.41803581
670.484	98.42189061
670.671	98.40837725
670.858	98.37648557
671.045	98.33261746
671.232	98.3642754
671.419	98.38507332
671.606	98.38858937
671.793	98.3493761
671.98	98.40195265
672.167	98.44021395
672.354	98.42880925
672.541	98.39756049
672.728	98.4139467
672.915	98.38939467
673.101	98.40388192
673.288	98.47305982
673.475	98.42978421
673.662	98.42763411
673.849	98.40548175
674.035	98.49256028
674.222	98.57780253
674.409	98.59139336
674.596	98.62714212
674.783	98.63381922
674.969	98.63266017
675.156	98.62744435
675.343	98.64918013
675.529	98.67436127
675.716	98.75390838
675.903	98.7052393
676.089	98.65270835
676.276	98.65000289
676.462	98.63929501
676.649	98.62116483
676.836	98.63278565
677.022	98.63672332
677.209	98.58054169
677.395	98.6342069
677.582	98.61193306
677.768	98.61216984
677.955	98.59926714
678.141	98.55171813
678.328	98.52008899
678.514	98.42313204
678.701	98.39754525
678.887	98.39240908
679.073	98.39555672
679.26	98.36165978
679.446	98.315986
679.632	98.29078942
679.819	98.28633357
680.005	98.28076768
680.191	98.25593231
680.378	98.26543061
680.564	98.25552773
680.75	98.23463615
680.936	98.1934577
681.123	98.19417131
681.309	98.21473179
681.495	98.22503167
681.681	98.19956688
681.867	98.16289291
682.054	98.23014272
682.24	98.24396408
682.426	98.30865889
682.612	98.337549
682.798	98.3341574
682.984	98.35023428
683.17	98.34117431
683.356	98.31626131
683.542	98.30112113
683.728	98.32689867
683.914	98.40732139
684.1	98.42817883
684.286	98.42308642
684.472	98.40496751
684.658	98.41446314
684.844	98.47798564
685.03	98.45975165
685.216	98.43445929
685.402	98.41436139
685.588	98.43008403
685.774	98.43904288
685.96	98.38894375
686.145	98.40344581
686.331	98.37758937
686.517	98.36467529
686.703	98.39106343
686.889	98.37081031
687.074	98.41178372
687.26	98.47283514
687.446	98.49695302
687.631	98.55535254
687.817	98.5559239
688.003	98.53676263
688.189	98.51670834
688.374	98.54984605
688.56	98.57139195
688.745	98.59708474
688.931	98.62235215
689.117	98.66910666
689.302	98.71554293
689.488	98.77607769
689.673	98.82465018
689.859	98.84336048
690.044	98.84339621
690.23	98.90065571
690.415	98.93802971
690.601	98.94450438
690.786	98.98919702
690.972	99.02176258
691.157	99.06756005
691.343	99.09413098
691.528	99.06687847
691.713	99.08220154
691.899	99.17224917
692.084	99.25028499
692.269	99.29016527
692.455	99.31166023
692.64	99.25677217
692.825	99.28731005
693.011	99.2414766
693.196	99.27536161
693.381	99.2731429
693.566	99.28569266
693.752	99.32050492
693.937	99.36839288
694.122	99.40415405
694.307	99.37790837
694.492	99.39073611
694.678	99.4154928
694.863	99.37040208
695.048	99.38000199
695.233	99.38436085
695.418	99.3620758
695.603	99.32410205
695.788	99.25734882
695.973	99.28816986
696.158	99.26456568
696.343	99.2360075
696.528	99.26310025
696.713	99.23111174
696.898	99.27127347
697.083	99.30088033
697.268	99.23384708
697.453	99.24707253
697.638	99.28608933
697.823	99.28817572
698.008	99.28522653
698.192	99.35123138
698.377	99.3173502
698.562	99.33993465
698.747	99.39197459
698.932	99.41016579
699.117	99.40981368
699.301	99.36352044
699.486	99.39609228
699.671	99.39458959
699.856	99.35661788
700.04	99.36527766
700.225	99.34893659
700.41	99.37127831
700.594	99.39746215
700.779	99.3931728
700.964	99.36536713
701.148	99.37718399
701.333	99.33453633
701.517	99.30465959
701.702	99.29800227
701.887	99.27969267
702.071	99.24170757
702.256	99.29112425
702.44	99.2326244
702.625	99.16023985
702.809	99.11675258
702.994	99.09468852
703.178	99.08632544
703.362	99.09690403
703.547	99.08713802
703.731	99.06955008
703.916	99.06292419
704.1	99.16543907
704.284	99.15648522
704.469	99.13986301
704.653	99.11673819
704.837	99.06813769
705.022	99.09932071
705.206	99.12765397
705.39	99.09482156
705.575	99.10164226
705.759	99.09413447
705.943	99.07184034
706.127	99.01494006
706.311	99.06225033
706.496	99.09179337
706.68	99.04774276
706.864	99.09488539
707.048	99.20962766
707.232	99.1944269
707.416	99.23648839
707.6	99.340078
707.785	99.3773334
707.969	99.33396285
708.153	99.31642401
708.337	99.34244539
708.521	99.31719544
708.705	99.36288761
708.889	99.377626
709.073	99.31245871
709.257	99.30667396
709.441	99.28751629
709.624	99.30494765
709.808	99.34786141
709.992	99.37069116
710.176	99.30209061
710.36	99.30089274
710.544	99.37452149
710.728	99.36847429
710.912	99.32717061
711.095	99.31897854
711.279	99.33671342
711.463	99.29192677
711.647	99.26578573
711.83	99.25833388
712.014	99.27795619
712.198	99.29132727
712.382	99.29111458
712.565	99.37290655
712.749	99.37066824
712.933	99.40043487
713.116	99.42410354
713.3	99.4076805
713.483	99.4074448
713.667	99.39685068
713.851	99.42669414
714.034	99.46131373
714.218	99.46403759
714.401	99.46409762
714.585	99.42940278
714.768	99.42582023
714.952	99.46213281
715.135	99.47732108
715.319	99.47850014
715.502	99.54263246
715.686	99.58357891
715.869	99.58073013
716.052	99.63718039
716.236	99.69782165
716.419	99.59420784
716.602	99.65105489
716.786	99.65894338
716.969	99.67439266
717.152	99.69683235
717.336	99.67160922
717.519	99.69041355
717.702	99.67240329
717.885	99.71109427
718.069	99.73936655
718.252	99.72816377
718.435	99.76630073
718.618	99.82961847
718.801	99.78466157
718.985	99.72157678
719.168	99.71885534
719.351	99.59953124
719.534	99.59405827
719.717	99.61961126
719.9	99.59580312
720.083	99.60576321
720.266	99.7294415
720.449	99.66830489
720.632	99.7378153
720.815	99.77652293
720.998	99.77249944
721.181	99.8022418
721.364	99.80831752
721.547	99.81342048
721.73	99.7458606
721.913	99.699553
722.096	99.65257451
722.279	99.71388021
722.461	99.66177136
722.644	99.67506478
722.827	99.7981875
723.01	99.75133188
723.193	99.87550938
723.376	99.83325345
723.558	99.83012405
723.741	99.77929085
723.924	99.77746493
724.107	99.74733087
724.289	99.72533289
724.472	99.66557185
724.655	99.63578227
724.837	99.62190599
725.02	99.61210922
725.203	99.58962628
725.385	99.5573706
725.568	99.61006143
725.75	99.61791101
725.933	99.63735959
726.115	99.62029371
726.298	99.61457609
726.481	99.54065414
726.663	99.48019713
726.845	99.57135033
727.028	99.53499917
727.21	99.51855907
727.393	99.49108642
727.575	99.46065016
727.758	99.36041196
727.94	99.31522825
728.122	99.40210472
728.305	99.40841023
728.487	99.47098668
728.67	99.48579358
728.852	99.51420239
729.034	99.51732108
729.216	99.53620989
729.399	99.52611141
729.581	99.55419984
729.763	99.60562319
729.945	99.57208374
730.128	99.60933876
730.31	99.70397743
730.492	99.71090367
730.674	99.66726618
730.856	99.64790367
731.039	99.72568151
731.221	99.72873215
731.403	99.75572332
731.585	99.80656421
731.767	99.81937974
731.949	99.83325728
732.131	99.82295443
732.313	99.78468893
732.495	99.76503565
732.677	99.73376647
732.859	99.7207044
733.041	99.75135419
733.223	99.73235223
733.405	99.69830147
733.587	99.70269772
733.769	99.6690106
733.951	99.60863047
734.132	99.60597336
734.314	99.66032421
734.496	99.68973581
734.678	99.72088499
734.86	99.68951588
735.042	99.68301457
735.223	99.67047927
735.405	99.63504437
735.587	99.60393865
735.769	99.54868886
735.95	99.50399155
736.132	99.47643854
736.314	99.5236733
736.495	99.50517761
736.677	99.47709192
736.859	99.49373344
737.04	99.54135035
737.222	99.54678944
737.403	99.48335566
737.585	99.44910833
737.767	99.49487704
737.948	99.45476797
738.13	99.43810783
738.311	99.37884767
738.493	99.32077393
738.674	99.38340986
738.856	99.33415694
739.037	99.29937942
739.219	99.27884441
739.4	99.28086241
739.581	99.18704839
739.763	99.20748296
739.944	99.26216814
740.125	99.27106531
740.307	99.27065946
740.488	99.29819849
740.669	99.34546322
740.851	99.28013162
741.032	99.2687978
741.213	99.25249304
741.395	99.30414685
741.576	99.28858299
741.757	99.29170223
741.938	99.21561314
742.119	99.23829599
742.301	99.197742
742.482	99.07103182
742.663	99.13255712
742.844	99.19701924
743.025	99.18996694
743.206	99.15458799
743.387	99.28003596
743.568	99.35835797
743.749	99.23703866
743.93	99.20377104
744.111	99.28986014
744.292	99.39656139
744.473	99.38068581
744.654	99.40984314
744.835	99.39770391
745.016	99.5096184
745.197	99.4921458
745.378	99.58482954
745.559	99.5041497
745.74	99.57664501
745.921	99.55969191
746.102	99.77254542
746.282	99.92231093
746.463	99.92608479
746.644	99.90478011
746.825	100.00811035
747.006	99.97902862
747.186	99.89801651
747.367	99.87687808
747.548	99.94301326
747.728	100.06529092
747.909	100.0255756
748.09	99.96862384
748.27	99.87178673
748.451	99.91652034
748.632	100.01427182
748.812	100.03782842
748.993	100.05409033
749.173	99.97101064
749.354	100.05081647
749.535	100.07788583
749.715	100.10832291
749.896	100.00346752
750.076	99.98172024
750.257	99.92662823
750.437	99.93573144
750.618	99.97870036
750.798	100.11529471
750.978	100.21443526
751.159	100.25694808
751.339	100.29269234
751.52	100.20369834
751.7	100.19804591
751.88	100.17222961
752.061	100.19167738
752.241	100.18489623
752.421	100.21730844
752.601	100.15174987
752.782	100.22860207
752.962	100.26919554
753.142	100.30887341
753.322	100.24198261
753.503	100.22837343
753.683	100.17440396
753.863	100.11347666
754.043	100.08756056
754.223	100.0590588
754.403	100.06742737
754.583	100.02855331
754.764	100.01777674
754.944	99.97378461
755.124	99.95499502
755.304	100.02379267
755.484	100.0973398
755.664	100.12789776
755.844	100.20044787
756.024	100.19348945
756.204	100.13147583
756.384	100.08490574
756.564	99.98320118
756.743	100.02616751
756.923	100.01066086
757.103	99.90500579
757.283	99.88469745
757.463	99.93450271
757.643	99.93367212
757.823	100.00787569
758.002	100.06729066
758.182	100.03691105
758.362	100.10095294
758.542	100.02651822
758.721	100.09262791
758.901	100.08925933
759.081	99.92433716
759.261	99.82923815
759.44	99.80195825
759.62	99.84266266
759.8	99.8572791
759.979	99.857393
760.159	99.83935902
760.338	99.9567427
760.518	99.93954056
760.698	99.84103396
760.877	100.06999561
761.057	100.21393369
761.236	100.14212738
761.416	100.07238317
761.595	100.12158352
761.775	100.16689713
761.954	100.15635481
762.133	99.97112263
762.313	100.0333504
762.492	99.99374305
762.672	100.01024072
762.851	100.08678253
763.03	100.04299538
763.21	100.1413746
763.389	100.15984769
763.568	100.14251503
763.748	100.11349946
763.927	100.21567172
764.106	100.06952343
764.286	100.0657648
764.465	100.13745521
764.644	100.00709283
764.823	99.926165
765.002	100.06116829
765.182	100.20802573
765.361	100.20372972
765.54	100.08344866
765.719	100.12519322
765.898	100.27500401
766.077	100.26108662
766.256	100.25251612
766.435	100.21439597
766.614	100.27929172
766.793	100.45761587
766.972	100.42164378
767.151	100.36941727
767.33	100.41690491
767.509	100.4959433
767.688	100.31563391
767.867	100.43236292
768.046	100.52200541
768.225	100.61823037
768.404	100.75102795
768.583	100.83592803
768.762	100.77099208
768.94	100.57228166
769.119	100.61143431
769.298	100.66572751
769.477	100.61216561
769.656	100.65625844
769.834	100.63674513
770.013	100.63446297
770.192	100.61714424
770.37	100.54756056
770.549	100.50607644
770.728	100.32979739
770.906	100.23930966
771.085	100.31448503
771.264	100.42138604
771.442	100.53913108
771.621	100.60521589
771.799	100.61895755
771.978	100.60581724
772.157	100.42572646
772.335	100.39765583
772.514	100.36377142
772.692	100.5144067
772.871	100.30065744
773.049	100.46464067
773.228	100.42729179
773.406	100.44096573
773.584	100.52315094
773.763	100.56390452
773.941	100.76574252
774.119	100.8035167
774.298	100.79130719
774.476	101.10706844
774.655	101.37609145
774.833	101.27516331
775.011	101.12656389
775.189	101.10445142
775.368	101.21361961
775.546	100.9769418
775.724	101.0310001
775.902	101.08624622
776.08	100.95687101
776.259	100.88843823
776.437	100.90699676
776.615	101.02700008
776.793	101.0007701
776.971	101.12118901
777.149	100.91750423
777.327	101.13646513
777.505	101.09723757
777.683	100.91396595
777.861	100.68602187
778.04	100.69960947
778.218	100.49377788
778.395	100.32061697
778.573	100.33702546
778.751	100.38061975
778.929	100.38853748
779.107	100.29897573
779.285	100.286363
779.463	100.19196832
779.641	100.16480683
779.819	100.30432829
779.997	100.34682582
780.174	100.36581469
780.352	100.38473287
780.53	100.24150274
780.708	100.06672486
780.886	100.17017186
781.063	99.7634855
781.241	99.99077375
781.419	99.9568865
781.596	100.27595988
781.774	100.13381442
781.952	100.07979367
782.129	100.06075836
782.307	100.16938283
782.485	100.26277297
782.662	100.46999082
782.84	100.37683067
783.017	100.63120283
783.195	100.59590407
783.372	100.64506135
783.55	100.52858414
783.727	100.60984991
783.905	100.64473711
784.082	100.72214248
784.26	100.75362684
784.437	101.00365603
784.615	101.24434466
784.792	101.70604959
784.969	101.27335335
785.147	101.36402057
785.324	101.17903781
785.501	101.36734856
785.679	101.29251285
785.856	101.4457477
786.033	101.50393081
786.211	101.16320691
786.388	101.14255249
786.565	101.20689461
786.742	101.04170633
786.92	100.97572877
787.097	100.97959165
787.274	101.12573928
787.451	101.25673169
787.628	101.15426341
787.805	101.12374742
787.982	101.11149995
788.16	101.11268075
788.337	100.9301469
788.514	100.75841333
788.691	101.13799347
788.868	101.23841938
789.045	101.09550974
789.222	100.92333487
789.399	101.14392654
789.576	100.89943544
789.753	100.73743436
789.93	100.738574
790.106	100.83379382
790.283	100.81311713
790.46	100.88681594
790.637	100.97641993
790.814	100.78271301
790.991	100.68704565
791.168	100.5624544
791.344	100.36834885
791.521	100.29792935
791.698	100.32196164
791.875	100.19384913
792.051	100.2417812
792.228	100.26242123
792.405	99.83308438
792.581	99.60727249
792.758	99.85071044
792.935	100.21810765
793.111	100.22517832
793.288	100.26589895
793.465	100.19074856
793.641	100.47461415
793.818	100.23996894
793.994	100.2616358
794.171	100.13852547
794.347	100.2918699
794.524	100.58089567
794.7	100.53571978
794.877	100.55191069
795.053	100.68819124
795.23	101.06682934
795.406	101.15848359
795.583	101.32357622
795.759	101.47746993
795.935	101.55580084
796.112	101.87576322
796.288	101.77235245
796.464	101.95328878
796.641	101.79217511
796.817	101.58053164
796.993	101.75496464
797.169	101.73332191
797.346	101.92524062
797.522	102.22275716
797.698	102.4668656
797.874	102.61636148
798.051	102.45223409
798.227	102.61996939
798.403	102.49512219
798.579	102.51043777
798.755	102.67703957
798.931	102.25387057
799.107	102.16546399
799.283	102.48530541
799.459	102.49219423
799.635	102.2214773
799.811	102.10641254
799.987	102.40836839
800.163	102.16297009
800.339	102.03764743
800.515	102.05195685
800.691	102.23767414
800.867	102.42152211
801.043	102.3369151
801.219	102.17663554
801.395	101.75522527
801.571	101.7936056
801.746	101.83366198
801.922	101.39110503
802.098	101.72958485
802.274	101.61102188
802.45	101.43375769
802.625	101.87553572
802.801	101.91614997
802.977	101.59768629
803.152	101.27461459
803.328	101.2795595
803.504	101.30001883
803.679	101.35159669
803.855	102.59955382
804.031	102.49289972
804.206	102.73031433
804.382	102.51851733
804.557	102.47370353
804.733	102.48648736
804.909	102.59484617
805.084	102.51997491
805.26	102.61644825
805.435	102.6501188
805.61	102.83115568
805.786	102.74438265
805.961	103.06504096
806.137	103.34963147
806.312	103.2850806
806.488	103.29994802
806.663	103.25459619
806.838	103.62129203
807.014	103.82759293
807.189	103.82750504
807.364	103.91514957
807.54	102.50531562
807.715	102.57956387
807.89	102.5209301
808.065	102.22685074
808.241	102.17057559
808.416	101.75094217
808.591	101.69659861
808.766	102.27550315
808.941	102.03402422
809.116	101.92220069
809.291	102.01239567
809.467	102.01808755
809.642	102.04266956
809.817	101.80932245
809.992	101.67467751
810.167	101.84814734
810.342	101.47564676
810.517	101.0358404
810.692	100.87875351
810.867	100.91954148
811.042	101.112813
811.217	100.99383196
811.392	101.02401621
811.567	101.10444191
811.741	101.19333089
811.916	101.294129
812.091	101.5858704
812.266	101.5634406
812.441	101.02308365
812.616	100.95899565
812.79	101.05777986
812.965	101.1023224
813.14	101.39408365
813.315	101.35246682
813.489	101.34414979
813.664	100.98794944
813.839	100.96801905
814.013	101.28964877
814.188	101.79248515
814.363	101.77688711
814.537	101.36221152
814.712	100.72623353
814.887	101.38924843
815.061	101.26320007
815.236	101.26345291
815.41	101.68688325
815.585	101.73274958
815.759	101.7462451
815.934	101.65275137
816.108	102.01137982
816.283	101.69515263
816.457	102.0546382
816.631	102.08993759
816.806	101.78844911
816.98	101.53891993
817.155	101.58382078
817.329	101.43639587
817.503	101.50559831
817.678	101.05682731
817.852	100.64621971
818.026	100.62354119
818.201	100.91612694
818.375	100.93125511
818.549	100.32769986
818.723	100.28533024
818.897	99.99274367
819.072	99.93838628
819.246	99.66983804
819.42	99.58937725
819.594	99.46390465
819.768	99.37113385
819.942	99.5904756
820.116	99.25093314
820.29	99.30267625
820.465	99.33318771
820.639	99.32980588
820.813	99.38774579
820.987	99.6380344
821.161	99.60849281
821.335	99.69406069
821.509	99.70469013
821.682	99.70987888
821.856	99.72903245
822.03	99.76725344
822.204	99.84631449
822.378	100.06162921
822.552	100.41022454
822.726	100.4773539
822.9	100.77209642
823.073	100.7932162
823.247	100.88304388
823.421	101.08603253
823.595	100.809724
823.768	101.10526159
823.942	101.07681143
824.116	101.24831591
824.289	101.63146287
824.463	101.44051637
824.637	101.2158866
824.81	101.04538747
824.984	101.07991498
825.158	101.27238957
825.331	101.60684728
825.505	101.44337789
825.678	101.30849063
825.852	101.39266173
826.025	100.94795425
826.199	100.5410509
826.372	100.36996255
826.546	100.57660919
826.719	100.89577858
826.893	100.98694876
827.066	101.00773889
827.24	101.41735162
827.413	101.88771984
827.586	101.86063997
827.76	101.29463898
827.933	100.9392588
828.106	101.16564779
828.28	101.04984512
828.453	101.43689264
828.626	101.46957607
828.799	101.18981413
828.973	100.17384954
829.146	100.21991731
829.319	100.69036134
829.492	101.04492303
829.665	101.19393906
829.839	101.38915582
830.012	101.3388275
830.185	100.88797267
830.358	100.64882805
830.531	100.55454148
830.704	100.50909487
830.877	100.22103949
831.05	100.39282484
831.223	100.35358238
831.396	100.74916741
831.569	101.01029441
831.742	101.06541997
831.915	100.61592749
832.088	100.44619205
832.261	100.51186299
832.434	100.62021065
832.607	100.75313696
832.779	100.80682985
832.952	100.93831244
833.125	100.93984552
833.298	101.28242958
833.471	101.74576634
833.643	101.55605061
833.816	101.75419821
833.989	101.95579434
834.162	103.0833981
834.334	102.65878404
834.507	103.1543052
834.68	102.50014917
834.852	103.25236826
835.025	103.5079594
835.198	103.1946806
835.37	102.5647635
835.543	103.79099731
835.715	104.78557729
835.888	105.04311225
836.061	103.91583869
836.233	104.55826235
836.406	104.68229057
836.578	105.02528393
836.751	105.91692989
836.923	105.79865543
837.095	105.27692386
837.268	105.19176561
837.44	104.3866761
837.613	105.3064079
837.785	104.54156255
837.957	104.80750612
838.13	106.02886863
838.302	106.53860763
838.474	105.52997948
838.647	104.38127404
838.819	103.06272569
838.991	105.45053994
839.163	105.01565523
839.336	103.89960031
839.508	102.30076552
839.68	105.42257391
839.852	105.83491787
840.024	106.23575422
840.196	103.64167669
840.368	101.24462548
840.541	102.56237182
840.713	101.65318711
840.885	103.29831282
841.057	105.57162474
841.229	103.89289268
841.401	103.05684938
841.573	103.71192189
841.745	102.01821869
841.917	101.78885533
842.089	102.7326516
842.261	106.58641445
842.432	107.42090386
842.604	105.1942324
842.776	103.95158169
842.948	105.08571225
843.12	110.9184543
843.292	111.17596438
843.464	111.2631134
843.635	110.99191481
843.807	110.79125185
843.979	113.28717171
844.151	112.71688443
844.322	112.41336377
844.494	112.1905332
844.666	112.15845264
844.837	114.40044907
845.009	115.01825058
845.181	114.71550033
845.352	116.97846181
845.524	114.49562272
845.695	112.94148312
845.867	108.222559
846.039	110.23799846
846.21	108.45789449
846.382	112.24424406
846.553	107.80198726
846.725	102.54762659
846.896	101.86444599
847.068	101.20920678
847.239	101.72469899
847.41	104.72437251
847.582	101.50407451
847.753	98.19883041
847.925	100.4524025
848.096	99.99539997
848.267	98.08555897
848.439	95.38546306
848.61	95.12928443
848.781	95.63427074
848.952	94.01400067
849.124	96.20974361
849.295	97.62152005
849.466	101.63934426
849.637	99.47371164
849.808	99.06076488
849.98	97.34787779
850.151	104.02941949
850.322	108.94092897
850.493	108.2671542
850.664	108.95780944
850.835	111.88113132
851.006	114.00568347
851.177	122.58869007
851.348	124.76891153
851.519	120.46525865
851.69	124.68147769
851.861	124.35105068
852.032	126.10714987
852.203	127.63973172
852.374	126.60032103
852.545	124.09891297
852.716	123.49401328
852.887	121.6663567
853.057	118.08294931
853.228	115.1887517
853.399	116.41862411
853.57	116.33041025
853.741	113.54357581
853.911	107.09437902
854.082	104.02942652
854.253	104.657471
854.424	104.55447791
854.594	103.4490346
854.765	102.09050013
854.936	99.95388163
855.106	102.10368533
855.277	99.21162467
855.447	101.22411969
855.618	98.90696362
855.789	95.9566749
855.959	97.24457709
856.13	95.27969268
856.3	95.16884796
856.471	94.26525228
856.641	97.72614656
856.812	101.4680816
856.982	103.54172404
857.153	101.29140325
857.323	104.68673982
857.493	109.69962801
857.664	113.81824445
857.834	106.90339538
858.004	105.40037244
858.175	105.2942123
858.345	99.57095185
858.515	101.37168879
858.686	102.39524317
858.856	107.10055834
859.026	109.76564783
859.196	110.9333647
859.367	110.12940114
859.537	114.96159754
859.707	123.42200038
859.877	117.27678299
860.047	123.7367729
860.217	117.07825234
860.387	116.85140181
860.558	115.91870791
860.728	120.49350495
860.898	117.06542825
861.068	118.59809158
861.238	119.81059485
861.408	124.98327149
861.578	127.88395692
861.748	125.76775733
861.918	123.77249639
862.088	129.0152441
862.257	128.24016291
862.427	124.38349108
862.597	120.67477947
862.767	120.29875309
862.937	124.03708543
863.107	119.66960488
863.277	116.98937785
863.446	119.82384398
863.616	119.07835213
863.786	121.61817409
863.956	118.19693331
864.125	123.15991815
864.295	127.32222726
864.465	126.67914059
864.634	121.30081301
864.804	115.89770287
864.974	122.63103803
865.143	120.88029343
865.313	121.92350882
865.482	127.34536254
865.652	122.77613629
865.822	125.53716521
865.991	122.81206886
866.161	119.68036806
866.33	120.67059467
866.5	118.30138602
866.669	116.41824625
866.838	115.48140978
867.008	121.26303919
867.177	116.72269386
867.347	118.29698617
867.516	123.68405436
867.685	117.40287387
867.855	109.0632226
868.024	110.94507034
868.193	111.6681172
868.363	110.35331341
868.532	104.6891915
868.701	105.59953093
868.87	106.54473731
869.04	107.15262501
869.209	112.37680634
869.378	110.35854018
869.547	110.67248687
869.716	110.03639504
869.885	109.69384508
870.055	110.14086388
870.224	107.79158372
870.393	105.81678858
870.562	103.60575186
870.731	100.81450528
870.9	98.43073209
871.069	98.22856716
871.238	100.70337478
871.407	103.75501276
871.576	102.97405611
871.745	104.36366089
871.914	115.02140091
872.083	114.25682508
872.251	107.6364092
872.42	105.57766558
872.589	106.78339587
872.758	98.95615866
872.927	96.46089643
873.096	98.06527681
873.264	96.33870725
873.433	96.70847148
873.602	96.82031286
873.771	97.92648876
873.939	99.83613092
874.108	99.62861013
874.277	104.12622435
874.445	101.63792731
874.614	101.44803725
874.783	100.10019604
874.951	103.10431701
875.12	102.38927984
875.288	101.10756212
875.457	93.05870237
875.625	92.66488597
875.794	96.69375296
875.962	97.28446229
876.131	94.98439304
876.299	95.84225147
876.468	99.07232196
876.636	96.25551706
876.805	101.86682944
876.973	100.92847139
877.141	105.40082079
877.31	109.46429555
877.478	110.71576825
877.647	109.25352195
877.815	107.28630129
877.983	111.58271237
878.151	111.44966047
878.32	110.64007145
878.488	110.24774082
878.656	110.96893264
878.824	113.09017091
878.992	118.43085976
879.161	122.3092894
879.329	122.34816222
879.497	128.57040281
879.665	125.6746117
879.833	122.03321993
880.001	118.85273625
880.169	122.72697303
880.337	121.0254398
880.505	125.14982156
880.673	125.06193505
880.841	121.98055808
881.009	118.00371211
881.177	118.98203174
881.345	114.85710331
881.513	110.41906438
881.681	109.94734185
881.849	113.80622063
882.017	112.17005373
882.185	111.4531314
882.352	113.42849816
882.52	119.56962695
882.688	115.26647084
882.856	112.12713521
883.024	105.34097516
883.191	110.06185208
883.359	117.44874715
883.527	117.89181692
883.694	118.6530074
883.862	118.65573439
884.03	114.25965339
884.197	109.35655539
884.365	106.94350555
884.533	106.59644738
884.7	108.28840355
884.868	110.01457018
885.035	113.55026712
885.203	109.44967113
885.37	109.74968568
885.538	109.30950351
885.705	110.12400518
885.873	106.7357513
886.04	100.13859141
886.208	100.43464433
886.375	97.54772504
886.542	98.99911118
886.71	98.90656064
886.877	94.13831944
