Data from orange_paint_kaisercraft_pure_Reflection_001.txt Node
Date: Tue Nov 28 17:31:14 AEST 2023
User: uqkchene_local
Spectrometer: USB4E02642
Trigger mode: 4
Integration Time (sec): 2.320000E-1
Scans to average: 10
Electric dark correction enabled: true
Nonlinearity correction enabled: false
Boxcar width: 10
XAxis mode: Wavelengths
Number of Pixels in Spectrum: 3648
>>>>>Begin Spectral Data<<<<<
179.217	428.27663134
179.432	755.55555556
179.647	878.02944507
179.862	521.51260504
180.077	366.52977413
180.293	262.2296173
180.508	1300.94488189
180.723	-601.25523013
180.938	-427.53492564
181.153	-176.58959538
181.368	-151.86894324
181.583	-69.85850609
181.798	-57.42717046
182.013	-33.47732181
182.228	-5.48025928
182.443	21.14181041
182.658	30.72476656
182.873	35.59322034
183.088	28.89487211
183.303	26.10026385
183.518	27.80337942
183.733	29.71148437
183.948	33.07018236
184.162	26.04334176
184.377	24.43552434
184.592	24.25848187
184.807	30.26175381
185.022	33.91229894
185.237	38.04527885
185.452	37.90591806
185.667	42.22057644
185.882	45.08822272
186.096	42.25823498
186.311	41.75830437
186.526	42.20450014
186.741	42.72433969
186.956	42.53601393
187.17	39.54134816
187.385	41.35894407
187.6	41.68827732
187.815	39.20271231
188.03	43.06820134
188.244	41.81507824
188.459	45.4746503
188.674	44.88694072
188.889	45.78168314
189.103	47.31672379
189.318	45.06182501
189.533	44.99709287
189.747	43.44628992
189.962	46.38932897
190.177	43.79859311
190.391	40.58248409
190.606	39.92971073
190.821	42.46820906
191.035	44.69370629
191.25	45.2933877
191.465	47.04752463
191.679	54.05037037
191.894	53.4266497
192.109	55.9833444
192.323	57.21969384
192.538	54.42994701
192.752	54.61688427
192.967	54.58675004
193.181	54.26775016
193.396	51.74095981
193.611	50.12005171
193.825	47.82445846
194.04	50.96207387
194.254	53.18731211
194.469	50.79992471
194.683	55.27074263
194.898	58.25188321
195.112	57.54475703
195.327	60.30525104
195.541	55.67440494
195.756	56.00160119
195.97	53.63100809
196.184	48.56747564
196.399	44.71648735
196.613	45.73643411
196.828	45.41526917
197.042	46.794617
197.257	48.21144892
197.471	45.69338388
197.685	47.78389576
197.9	45.66245647
198.114	41.54903901
198.328	43.68643017
198.543	39.71349585
198.757	39.60730549
198.971	37.47111258
199.186	32.83532693
199.4	33.19174477
199.614	35.4749271
199.829	30.64868274
200.043	31.77707039
200.257	31.60520496
200.471	31.40005253
200.686	29.71010735
200.9	33.52304487
201.114	30.86382573
201.328	28.11211052
201.543	28.97658409
201.757	28.24591364
201.971	29.41694816
202.185	29.50967803
202.399	30.51563821
202.614	33.05005188
202.828	31.29241288
203.042	34.35829558
203.256	34.25341048
203.47	36.80720038
203.684	43.96406513
203.899	42.62854813
204.113	40.78816332
204.327	44.62216802
204.541	43.95119064
204.755	43.75197152
204.969	43.39656168
205.183	43.6126098
205.397	40.19398895
205.611	42.45671888
205.825	43.06708987
206.039	40.96845129
206.253	42.30506933
206.467	42.01183432
206.681	44.80419938
206.895	45.09109082
207.109	47.15016357
207.323	46.65743945
207.537	48.8176371
207.751	44.7324072
207.965	48.860193
208.179	43.95768214
208.393	44.98388106
208.607	44.91620658
208.821	44.5587596
209.035	42.86408475
209.249	40.85621893
209.463	41.46798954
209.677	44.5717878
209.891	48.95455674
210.104	46.50032567
210.318	49.38835667
210.532	49.87095203
210.746	46.1534756
210.96	45.31012503
211.174	44.60545953
211.387	47.07743223
211.601	45.00671327
211.815	44.97474862
212.029	43.33441303
212.243	47.4068185
212.456	42.99635744
212.67	44.87850718
212.884	46.52812743
213.098	46.40099857
213.311	42.41153466
213.525	43.64859145
213.739	46.75569883
213.953	45.32170419
214.166	45.76955878
214.38	43.2051338
214.594	42.9697052
214.807	42.55348017
215.021	46.74652137
215.235	49.51447458
215.448	50.80045096
215.662	49.91013108
215.876	47.8091613
216.089	49.17939015
216.303	48.90957327
216.516	48.90253058
216.73	45.87183565
216.944	47.2473432
217.157	47.30767599
217.371	45.74892131
217.584	48.10841107
217.798	51.56008405
218.011	54.09402429
218.225	54.51557885
218.439	57.05003518
218.652	53.95409781
218.866	53.31101352
219.079	51.40643771
219.293	51.43390745
219.506	46.91028536
219.719	47.17691845
219.933	47.15196381
220.146	47.05110293
220.36	46.9839513
220.573	44.11925717
220.787	48.31608887
221	45.82087719
221.214	46.80860016
221.427	48.70891515
221.64	46.59767816
221.854	45.2356895
222.067	43.14045216
222.28	41.167045
222.494	38.01416568
222.707	35.41064261
222.92	33.15482617
223.134	35.24316559
223.347	39.97224442
223.56	39.9380805
223.774	37.67068944
223.987	37.71919216
224.2	35.57278901
224.414	33.9553848
224.627	32.33819058
224.84	31.42564345
225.053	31.38686131
225.267	27.67095277
225.48	30.68611355
225.693	30.62316525
225.906	27.12725147
226.119	30.01842901
226.333	29.85901138
226.546	29.15797751
226.759	28.15056754
226.972	28.43721138
227.185	30.82060769
227.398	32.25855146
227.612	31.157181
227.825	28.40671169
228.038	29.58933364
228.251	31.68478729
228.464	31.50304887
228.677	32.26394459
228.89	33.27858531
229.103	32.08391461
229.316	33.00166688
229.529	32.3577646
229.743	32.96114009
229.956	31.50440283
230.169	30.74089434
230.382	30.73308936
230.595	28.52855691
230.808	27.76002426
231.021	27.63398811
231.234	26.79115768
231.447	26.01731127
231.66	23.83533579
231.872	23.23551068
232.085	21.61572498
232.298	21.55989517
232.511	19.89509471
232.724	19.43578995
232.937	18.43048411
233.15	17.65005179
233.363	16.03717619
233.576	17.26667954
233.789	17.11898726
234.002	16.63642266
234.214	16.03053435
234.427	16.15184735
234.64	15.41208996
234.853	15.67669445
235.066	15.21827369
235.279	14.71573267
235.491	14.18216648
235.704	14.5904384
235.917	14.16766595
236.13	14.44357642
236.342	14.208332
236.555	14.49659692
236.768	14.0613235
236.981	14.61651327
237.193	13.96215763
237.406	13.21245328
237.619	11.90807343
237.832	11.68585889
238.044	11.09489885
238.257	10.60979026
238.47	10.61370547
238.682	10.43716337
238.895	10.04479077
239.108	9.98716882
239.32	9.70711558
239.533	9.51088682
239.746	9.44597613
239.958	9.29977064
240.171	8.94107831
240.383	9.08307218
240.596	8.74855647
240.808	8.37740467
241.021	8.16074295
241.234	8.08642178
241.446	7.79552404
241.659	7.59989153
241.871	7.83725977
242.084	7.82305535
242.296	7.9762887
242.509	7.86284423
242.721	7.83614449
242.934	7.73803753
243.146	7.58435772
243.359	7.47410864
243.571	7.45424707
243.784	7.44075428
243.996	7.39285164
244.208	7.30172407
244.421	7.23550569
244.633	7.26476135
244.846	7.21224449
245.058	7.14050162
245.27	7.03033179
245.483	7.07988612
245.695	7.09173732
245.907	7.00567435
246.12	7.01601003
246.332	6.9360199
246.544	7.08655204
246.757	6.94939437
246.969	6.95726907
247.181	6.84196057
247.394	6.94917139
247.606	6.89362078
247.818	7.01662965
248.03	6.98478793
248.243	6.96601792
248.455	7.08490335
248.667	7.09811279
248.879	7.08961759
249.092	7.12861422
249.304	7.02953293
249.516	7.22164559
249.728	7.30054192
249.94	7.20267634
250.153	7.24025091
250.365	7.43994727
250.577	7.5257599
250.789	7.44642219
251.001	7.38021402
251.213	7.44205367
251.425	7.42100427
251.637	7.51253953
251.85	7.3025664
252.062	7.33474481
252.274	7.23201086
252.486	7.22563551
252.698	7.22000303
252.91	7.04586056
253.122	7.03813905
253.334	6.98390923
253.546	6.84263834
253.758	6.82123046
253.97	6.50389963
254.182	6.50356314
254.394	6.49251185
254.606	6.35986085
254.818	6.11120523
255.03	6.04491364
255.242	6.04200817
255.454	6.09176019
255.666	6.01673724
255.877	5.97448863
256.089	5.87259248
256.301	5.89646177
256.513	5.91712396
256.725	5.9020103
256.937	5.90982607
257.149	5.85356161
257.361	5.85196514
257.572	5.82944272
257.784	5.82275918
257.996	5.85607506
258.208	5.85638686
258.42	5.89099688
258.631	5.87136096
258.843	5.90167637
259.055	5.89923229
259.267	5.9093678
259.479	5.85000486
259.69	5.87411057
259.902	5.81476955
260.114	5.86192068
260.325	5.8412163
260.537	5.8943519
260.749	5.90461892
260.961	5.88574101
261.172	5.86666378
261.384	5.82239991
261.596	5.87450746
261.807	5.8882815
262.019	5.86768457
262.23	5.88119765
262.442	5.83787081
262.654	5.8553575
262.865	5.87582171
263.077	5.85928569
263.288	5.85919867
263.5	5.85788171
263.712	5.89969858
263.923	5.96075184
264.135	5.93224282
264.346	5.9184023
264.558	5.86881917
264.769	5.94739709
264.981	5.94190824
265.192	5.94939594
265.404	5.92052778
265.615	5.95100443
265.827	5.9729894
266.038	5.95304747
266.25	5.91179835
266.461	6.02860023
266.673	6.05269299
266.884	6.04413994
267.095	5.98098774
267.307	5.95629523
267.518	5.96431372
267.73	5.90921995
267.941	5.8768374
268.152	5.85490708
268.364	5.85604925
268.575	5.86218326
268.786	5.8704993
268.998	5.86004505
269.209	5.87380914
269.42	5.87810824
269.632	5.83377543
269.843	5.87269202
270.054	5.86840553
270.265	5.855665
270.477	5.8105125
270.688	5.86078568
270.899	5.83827981
271.11	5.79193121
271.322	5.86091447
271.533	5.89992784
271.744	5.95234002
271.955	5.92844013
272.166	5.95604088
272.378	6.03914621
272.589	6.04007449
272.8	6.06668184
273.011	6.15508185
273.222	6.17042693
273.433	6.2130168
273.644	6.1659163
273.856	6.13484461
274.067	6.18489322
274.278	6.18594099
274.489	6.16691973
274.7	6.16713076
274.911	6.25249618
275.122	6.25490452
275.333	6.19733875
275.544	6.22401483
275.755	6.1665
275.966	6.15993723
276.177	6.13500397
276.388	6.20789875
276.599	6.24291308
276.81	6.20979507
277.021	6.26233454
277.232	6.24746368
277.443	6.18572353
277.654	6.22172375
277.865	6.20648628
278.076	6.22016565
278.287	6.25114101
278.497	6.21163851
278.708	6.21084448
278.919	6.20245212
279.13	6.27184488
279.341	6.26413703
279.552	6.25295688
279.763	6.24541814
279.973	6.23721157
280.184	6.23731331
280.395	6.20443837
280.606	6.19410829
280.817	6.17951967
281.027	6.20939117
281.238	6.14200346
281.449	6.1008353
281.66	6.09879766
281.87	6.10161769
282.081	6.06473973
282.292	6.07747248
282.503	6.0736975
282.713	6.09002242
282.924	6.15020933
283.135	6.12403723
283.345	6.1688283
283.556	6.09299942
283.767	6.0312949
283.977	6.01057303
284.188	6.03019827
284.399	6.01159938
284.609	6.01820446
284.82	6.06007856
285.03	6.04737165
285.241	6.06894286
285.451	6.05282027
285.662	6.08208931
285.873	6.12249744
286.083	6.11173503
286.294	6.13381162
286.504	6.11210688
286.715	6.12428949
286.925	6.15425921
287.136	6.1363364
287.346	6.13253104
287.557	6.15386231
287.767	6.16691202
287.978	6.1909431
288.188	6.23899614
288.399	6.25882568
288.609	6.23926778
288.819	6.288781
289.03	6.30893075
289.24	6.29156501
289.451	6.31752034
289.661	6.31238289
289.871	6.27445632
290.082	6.27485252
290.292	6.22978645
290.502	6.25772612
290.713	6.24349399
290.923	6.31481192
291.133	6.29106689
291.344	6.23851377
291.554	6.24251656
291.764	6.21062711
291.974	6.21350263
292.185	6.17691734
292.395	6.26077445
292.605	6.301235
292.815	6.27889717
293.026	6.31911855
293.236	6.25074186
293.446	6.23116034
293.656	6.27151168
293.866	6.27430526
294.077	6.28533705
294.287	6.33886729
294.497	6.35303737
294.707	6.3666044
294.917	6.33639837
295.127	6.3486289
295.337	6.32772748
295.548	6.30925087
295.758	6.33429897
295.968	6.32117196
296.178	6.30444868
296.388	6.27627647
296.598	6.28188615
296.808	6.23909209
297.018	6.21844298
297.228	6.26854634
297.438	6.25015854
297.648	6.30505624
297.858	6.3316774
298.068	6.31634605
298.278	6.2746926
298.488	6.23579844
298.698	6.21328043
298.908	6.20586398
299.118	6.19953638
299.328	6.23015198
299.538	6.21483466
299.748	6.19249009
299.957	6.2122846
300.167	6.23043601
300.377	6.33670143
300.587	6.33816067
300.797	6.41044194
301.007	6.47425869
301.217	6.49095877
301.426	6.47964096
301.636	6.46958276
301.846	6.49201157
302.056	6.49988713
302.266	6.46709268
302.475	6.48031879
302.685	6.54016036
302.895	6.54109311
303.105	6.51029517
303.314	6.52593723
303.524	6.56544908
303.734	6.5966673
303.944	6.56900535
304.153	6.62828986
304.363	6.62881105
304.573	6.63204516
304.782	6.5544834
304.992	6.58115046
305.202	6.5296076
305.411	6.50834443
305.621	6.50281001
305.831	6.50821889
306.04	6.50516369
306.25	6.51718259
306.459	6.51907173
306.669	6.55438365
306.878	6.52854353
307.088	6.56383605
307.298	6.59670817
307.507	6.63044561
307.717	6.6250737
307.926	6.58481638
308.136	6.531761
308.345	6.51647942
308.555	6.46350025
308.764	6.45790235
308.974	6.46769018
309.183	6.45026548
309.392	6.44924903
309.602	6.47064508
309.811	6.45611255
310.021	6.43003104
310.23	6.43673666
310.44	6.40902882
310.649	6.41106144
310.858	6.39906558
311.068	6.3959476
311.277	6.40432486
311.486	6.3560783
311.696	6.33023407
311.905	6.35992298
312.114	6.34340741
312.324	6.38472228
312.533	6.38269315
312.742	6.44020278
312.952	6.45062211
313.161	6.50206616
313.37	6.48297565
313.579	6.51179768
313.789	6.50602786
313.998	6.51334265
314.207	6.50781604
314.416	6.51633495
314.625	6.50677268
314.835	6.53543174
315.044	6.51758946
315.253	6.51498022
315.462	6.55821594
315.671	6.54847565
315.88	6.55931618
316.09	6.59784899
316.299	6.53463019
316.508	6.53603658
316.717	6.56519486
316.926	6.62765328
317.135	6.65862931
317.344	6.67615362
317.553	6.63865509
317.762	6.66704173
317.971	6.65665249
318.18	6.70533762
318.389	6.74348573
318.598	6.76437158
318.807	6.76772865
319.016	6.793149
319.225	6.80665569
319.434	6.79321746
319.643	6.8228633
319.852	6.7806736
320.061	6.78528445
320.27	6.85025992
320.479	6.84445554
320.688	6.81950184
320.897	6.84949063
321.105	6.78678795
321.314	6.74678071
321.523	6.68030357
321.732	6.68279937
321.941	6.65882364
322.15	6.65929571
322.359	6.70082111
322.567	6.65668771
322.776	6.62653219
322.985	6.61333374
323.194	6.63591367
323.403	6.63900689
323.611	6.64263559
323.82	6.64099998
324.029	6.62043583
324.237	6.56923412
324.446	6.56990633
324.655	6.53369618
324.864	6.55486907
325.072	6.5862517
325.281	6.59239172
325.49	6.61175523
325.698	6.60321451
325.907	6.6306953
326.116	6.6362312
326.324	6.66037021
326.533	6.6420232
326.741	6.57858106
326.95	6.59221133
327.159	6.57659383
327.367	6.56664437
327.576	6.56842607
327.784	6.54471227
327.993	6.56515163
328.201	6.61749408
328.41	6.63913038
328.618	6.68894534
328.827	6.71434997
329.035	6.67749411
329.244	6.65620916
329.452	6.63483108
329.661	6.62388133
329.869	6.62119946
330.078	6.62984801
330.286	6.61350225
330.495	6.59866839
330.703	6.59932849
330.911	6.63333778
331.12	6.70271708
331.328	6.74617664
331.537	6.75141057
331.745	6.73560465
331.953	6.75663052
332.162	6.7740837
332.37	6.73374791
332.578	6.70414539
332.787	6.68438722
332.995	6.67710143
333.203	6.65852343
333.411	6.6945455
333.62	6.73365899
333.828	6.77887973
334.036	6.74378774
334.244	6.7412261
334.453	6.74816855
334.661	6.7858088
334.869	6.82881015
335.077	6.80122229
335.285	6.80470611
335.494	6.77332546
335.702	6.71669519
335.91	6.72926114
336.118	6.74257901
336.326	6.72305139
336.534	6.72514164
336.742	6.7550383
336.951	6.74890605
337.159	6.76457737
337.367	6.79574899
337.575	6.75441576
337.783	6.77402039
337.991	6.7655805
338.199	6.75011371
338.407	6.7880572
338.615	6.77992209
338.823	6.78050799
339.031	6.77020504
339.239	6.76417861
339.447	6.77119472
339.655	6.75765306
339.863	6.75657218
340.071	6.77601177
340.279	6.80679229
340.487	6.80845241
340.695	6.81165444
340.903	6.80831123
341.11	6.78311836
341.318	6.78392351
341.526	6.80529061
341.734	6.78419081
341.942	6.84208932
342.15	6.84768007
342.358	6.79524443
342.565	6.80362623
342.773	6.81527627
342.981	6.80325037
343.189	6.79853401
343.397	6.77941441
343.604	6.77015237
343.812	6.80466498
344.02	6.79493557
344.228	6.77243905
344.435	6.77933144
344.643	6.77879383
344.851	6.80190113
345.058	6.78606917
345.266	6.79640272
345.474	6.83754444
345.681	6.83915144
345.889	6.84327383
346.097	6.87194015
346.304	6.85344555
346.512	6.85215882
346.72	6.88712654
346.927	6.86040867
347.135	6.86079795
347.342	6.91236776
347.55	6.95350397
347.758	6.98972871
347.965	6.99389246
348.173	6.97955688
348.38	6.97884746
348.588	6.98456978
348.795	7.00752495
349.003	7.00433063
349.21	7.0101938
349.418	7.05657073
349.625	7.08503892
349.833	7.07936817
350.04	7.12393789
350.247	7.12354602
350.455	7.14672004
350.662	7.16227006
350.87	7.12228647
351.077	7.11105547
351.284	7.14368453
351.492	7.13170457
351.699	7.12937164
351.906	7.12156754
352.114	7.11778967
352.321	7.09963942
352.528	7.08756758
352.736	7.09495065
352.943	7.08062332
353.15	7.09620302
353.358	7.08483853
353.565	7.06600649
353.772	7.03565922
353.979	7.00673127
354.187	6.99391024
354.394	6.96712147
354.601	6.95845546
354.808	6.92575926
355.015	6.91928054
355.223	6.93736961
355.43	6.95847895
355.637	6.94405672
355.844	6.96117202
356.051	6.91801629
356.258	6.89904672
356.465	6.88130233
356.673	6.90757203
356.88	6.9286164
357.087	6.91425223
357.294	6.92547429
357.501	6.91765973
357.708	6.90153413
357.915	6.90072024
358.122	6.8945708
358.329	6.89764817
358.536	6.90437908
358.743	6.88339845
358.95	6.87152078
359.157	6.86204091
359.364	6.8581574
359.571	6.84710327
359.778	6.83089935
359.985	6.81466274
360.192	6.80133842
360.399	6.82906511
360.606	6.81840067
360.812	6.80022826
361.019	6.78448138
361.226	6.78225029
361.433	6.76208751
361.64	6.77383537
361.847	6.75388455
362.054	6.77185414
362.26	6.76540374
362.467	6.76634912
362.674	6.7588645
362.881	6.74257854
363.088	6.74830177
363.294	6.75278731
363.501	6.7711962
363.708	6.78332194
363.915	6.79700193
364.121	6.81213042
364.328	6.82336864
364.535	6.84348791
364.741	6.82002359
364.948	6.83694746
365.155	6.85786253
365.361	6.86792125
365.568	6.85700617
365.775	6.89859467
365.981	6.90023832
366.188	6.92552356
366.395	6.94290754
366.601	6.93958606
366.808	6.94995037
367.014	6.94253854
367.221	6.93500269
367.427	6.95512673
367.634	6.97357957
367.84	6.96488874
368.047	6.95250238
368.254	6.93148745
368.46	6.89613235
368.667	6.91516541
368.873	6.88674652
369.079	6.92092259
369.286	6.92864221
369.492	6.92685771
369.699	6.91369472
369.905	6.94407751
370.112	6.91068384
370.318	6.89429555
370.524	6.8564526
370.731	6.80511374
370.937	6.79376941
371.144	6.77470806
371.35	6.75937838
371.556	6.75605952
371.763	6.7493475
371.969	6.710674
372.175	6.69656258
372.381	6.68364625
372.588	6.68765966
372.794	6.70753464
373	6.68647931
373.206	6.69199558
373.413	6.66245704
373.619	6.64039218
373.825	6.63512422
374.031	6.63278027
374.238	6.59241703
374.444	6.60748629
374.65	6.60716809
374.856	6.6109195
375.062	6.63716394
375.268	6.65643075
375.475	6.65556842
375.681	6.65768143
375.887	6.6759744
376.093	6.67591481
376.299	6.68030454
376.505	6.65368789
376.711	6.65436748
376.917	6.64408503
377.123	6.62384503
377.329	6.6158749
377.535	6.58136341
377.741	6.56285704
377.947	6.56691855
378.153	6.58685077
378.359	6.59926771
378.565	6.61939474
378.771	6.60307283
378.977	6.60683104
379.183	6.61304456
379.389	6.60833524
379.595	6.5808691
379.801	6.56970657
380.007	6.58031494
380.213	6.53973604
380.418	6.51428651
380.624	6.51125675
380.83	6.51786287
381.036	6.53181558
381.242	6.53185563
381.448	6.53901382
381.653	6.53981782
381.859	6.56468657
382.065	6.58071758
382.271	6.56209719
382.476	6.53768705
382.682	6.53022933
382.888	6.50164472
383.094	6.50506041
383.299	6.48064753
383.505	6.46314554
383.711	6.43897746
383.916	6.44715941
384.122	6.45897847
384.328	6.44083283
384.533	6.46173289
384.739	6.49226688
384.945	6.48577835
385.15	6.49866037
385.356	6.4927439
385.562	6.51023483
385.767	6.46838922
385.973	6.46259763
386.178	6.4417845
386.384	6.42140495
386.589	6.41912329
386.795	6.41809325
387	6.41339549
387.206	6.42131219
387.411	6.40518602
387.617	6.41196383
387.822	6.43067655
388.028	6.42255919
388.233	6.45260471
388.439	6.45020809
388.644	6.44191547
388.85	6.43989917
389.055	6.42601195
389.26	6.41453442
389.466	6.40512931
389.671	6.39564136
389.877	6.3659906
390.082	6.39950181
390.287	6.39520016
390.493	6.39365052
390.698	6.41067045
390.903	6.40634749
391.109	6.3882759
391.314	6.37748563
391.519	6.38120385
391.724	6.38225508
391.93	6.37607815
392.135	6.36270435
392.34	6.35722402
392.545	6.34133285
392.751	6.33460432
392.956	6.32270447
393.161	6.32950429
393.366	6.32176658
393.571	6.32041907
393.776	6.31331985
393.982	6.30126695
394.187	6.30606296
394.392	6.28832901
394.597	6.27936816
394.802	6.2995894
395.007	6.27969705
395.212	6.2838413
395.417	6.28490946
395.622	6.28423781
395.827	6.28784452
396.032	6.29699264
396.237	6.31047328
396.442	6.31601173
396.647	6.32236149
396.852	6.29566911
397.057	6.30641358
397.262	6.33542216
397.467	6.31670973
397.672	6.31673329
397.877	6.31793102
398.082	6.31446535
398.287	6.3194285
398.492	6.30437065
398.697	6.3214815
398.902	6.32848017
399.107	6.30777541
399.311	6.31212261
399.516	6.32859674
399.721	6.32554679
399.926	6.2986748
400.131	6.2621862
400.336	6.24159545
400.54	6.24647234
400.745	6.22439406
400.95	6.213254
401.155	6.23311729
401.359	6.21750617
401.564	6.19098515
401.769	6.18718194
401.974	6.16467504
402.178	6.17073051
402.383	6.16984571
402.588	6.16093243
402.792	6.17818093
402.997	6.16625157
403.202	6.16525162
403.406	6.17082162
403.611	6.15975353
403.815	6.12940173
404.02	6.14186587
404.225	6.16430368
404.429	6.17092948
404.634	6.17551631
404.838	6.17046172
405.043	6.1693281
405.247	6.17630278
405.452	6.16064369
405.656	6.16073719
405.861	6.15656774
406.065	6.17084709
406.27	6.17985346
406.474	6.18445214
406.679	6.16782718
406.883	6.17832413
407.088	6.18220606
407.292	6.19722332
407.497	6.19874757
407.701	6.20377886
407.905	6.22428429
408.11	6.24182917
408.314	6.21791519
408.518	6.18815202
408.723	6.19891149
408.927	6.21258758
409.131	6.19423825
409.336	6.20721327
409.54	6.20628522
409.744	6.21242439
409.949	6.21113113
410.153	6.22045158
410.357	6.20537174
410.561	6.1975687
410.766	6.19837133
410.97	6.21959869
411.174	6.21475093
411.378	6.19524089
411.582	6.17412669
411.787	6.16094649
411.991	6.14182078
412.195	6.12620632
412.399	6.10768344
412.603	6.11422043
412.807	6.12994887
413.011	6.11242776
413.215	6.09938699
413.419	6.07675623
413.624	6.05386013
413.828	6.04515562
414.032	6.02481015
414.236	6.00804112
414.44	6.0002119
414.644	6.00414841
414.848	5.98233945
415.052	5.95790848
415.256	5.93347944
415.46	5.91404687
415.664	5.90079709
415.868	5.89092516
416.072	5.88145428
416.275	5.87556332
416.479	5.8712989
416.683	5.86522975
416.887	5.85066064
417.091	5.84016187
417.295	5.82800538
417.499	5.81515291
417.703	5.8188012
417.906	5.81978149
418.11	5.81709931
418.314	5.815188
418.518	5.81524209
418.722	5.80024059
418.925	5.77332143
419.129	5.77169431
419.333	5.77835292
419.537	5.77441623
419.74	5.77564936
419.944	5.77569103
420.148	5.77338023
420.352	5.76815783
420.555	5.7600672
420.759	5.74984788
420.963	5.74250485
421.166	5.74261757
421.37	5.74297701
421.573	5.73928543
421.777	5.72824561
421.981	5.72858667
422.184	5.72666552
422.388	5.7272992
422.591	5.72776418
422.795	5.72042557
422.999	5.71817782
423.202	5.72583112
423.406	5.73495859
423.609	5.72380709
423.813	5.72252711
424.016	5.72016593
424.22	5.72186064
424.423	5.72328784
424.627	5.72602607
424.83	5.73726802
425.033	5.7450849
425.237	5.7465171
425.44	5.74896353
425.644	5.74634091
425.847	5.76292055
426.05	5.77989018
426.254	5.77422803
426.457	5.77713668
426.66	5.77617803
426.864	5.76653804
427.067	5.76968943
427.27	5.78387686
427.474	5.78101559
427.677	5.779954
427.88	5.77360949
428.084	5.7768431
428.287	5.78702856
428.49	5.77623691
428.693	5.77790274
428.896	5.77418709
429.1	5.7536589
429.303	5.75995458
429.506	5.76561582
429.709	5.76667053
429.912	5.76295016
430.116	5.74813303
430.319	5.74261136
430.522	5.73819872
430.725	5.73233054
430.928	5.7356433
431.131	5.73880548
431.334	5.7444127
431.537	5.7358277
431.74	5.74353797
431.943	5.74268349
432.146	5.74525651
432.349	5.74972929
432.552	5.74130049
432.755	5.74827466
432.958	5.73421139
433.161	5.73634252
433.364	5.74119683
433.567	5.72452072
433.77	5.72946877
433.973	5.71530289
434.176	5.7057654
434.379	5.70552422
434.582	5.70055101
434.785	5.70540399
434.988	5.71233042
435.19	5.69698686
435.393	5.69624967
435.596	5.69249092
435.799	5.7038973
436.002	5.69418026
436.205	5.68494924
436.407	5.69014386
436.61	5.67992231
436.813	5.67859319
437.016	5.67542493
437.218	5.68509158
437.421	5.68990694
437.624	5.68912965
437.827	5.68444033
438.029	5.67635491
438.232	5.68307774
438.435	5.69093004
438.637	5.68391138
438.84	5.6857301
439.043	5.68169809
439.245	5.67126727
439.448	5.66668436
439.65	5.65899468
439.853	5.65901504
440.056	5.64871569
440.258	5.65291356
440.461	5.65747046
440.663	5.65408249
440.866	5.6513414
441.068	5.6415221
441.271	5.63677918
441.473	5.62467078
441.676	5.62245142
441.878	5.60850974
442.081	5.60377012
442.283	5.59486776
442.486	5.58406604
442.688	5.57031384
442.89	5.57792507
443.093	5.57498469
443.295	5.5771766
443.498	5.56979727
443.7	5.56737842
443.902	5.56300402
444.105	5.55128783
444.307	5.54896623
444.509	5.54091398
444.712	5.52408706
444.914	5.5210129
445.116	5.52592321
445.319	5.52619168
445.521	5.52058493
445.723	5.51952304
445.925	5.5131497
446.128	5.52551878
446.33	5.5296026
446.532	5.52897912
446.734	5.5340283
446.936	5.53763041
447.139	5.53078884
447.341	5.53227034
447.543	5.52820313
447.745	5.53324313
447.947	5.53543539
448.149	5.54609008
448.351	5.5508931
448.553	5.54820598
448.755	5.55061491
448.958	5.56408513
449.16	5.56179918
449.362	5.54812513
449.564	5.55336941
449.766	5.5529388
449.968	5.55294445
450.17	5.54887722
450.372	5.55373209
450.574	5.55046221
450.776	5.54683875
450.978	5.5417827
451.179	5.5460893
451.381	5.55114925
451.583	5.54349242
451.785	5.53836509
451.987	5.53610243
452.189	5.53636269
452.391	5.5277957
452.593	5.52195286
452.795	5.5224818
452.996	5.52342618
453.198	5.51934483
453.4	5.51954107
453.602	5.53232504
453.804	5.52034638
454.005	5.52289381
454.207	5.52384525
454.409	5.52400101
454.611	5.49683896
454.812	5.49915654
455.014	5.49847192
455.216	5.49386637
455.417	5.48777422
455.619	5.4909301
455.821	5.48384779
456.022	5.48211575
456.224	5.47716451
456.426	5.48333699
456.627	5.49122851
456.829	5.48660785
457.031	5.48076786
457.232	5.48031111
457.434	5.48311987
457.635	5.49335735
457.837	5.48020588
458.038	5.48312964
458.24	5.48768769
458.441	5.49692668
458.643	5.49862843
458.844	5.5051534
459.046	5.50054238
459.247	5.50577754
459.449	5.51142843
459.65	5.51299983
459.852	5.50356527
460.053	5.51351351
460.254	5.52425067
460.456	5.52579908
460.657	5.5269308
460.859	5.52356556
461.06	5.52928566
461.261	5.54061758
461.463	5.52555326
461.664	5.53210898
461.865	5.52593709
462.066	5.54150861
462.268	5.54515533
462.469	5.54152224
462.67	5.52936106
462.872	5.52435661
463.073	5.54013147
463.274	5.55673237
463.475	5.55458874
463.676	5.55944033
463.878	5.56667627
464.079	5.58179225
464.28	5.58871681
464.481	5.589961
464.682	5.58468321
464.883	5.59532773
465.085	5.60227594
465.286	5.61351754
465.487	5.63431417
465.688	5.66319008
465.889	5.64779199
466.09	5.65853438
466.291	5.66523434
466.492	5.66944397
466.693	5.68436317
466.894	5.69351272
467.095	5.70263091
467.296	5.70819492
467.497	5.70367472
467.698	5.71151423
467.899	5.71899603
468.1	5.72620476
468.301	5.72293639
468.502	5.71870889
468.703	5.71529796
468.903	5.73182667
469.104	5.72095867
469.305	5.72567313
469.506	5.72735847
469.707	5.70458691
469.908	5.71304181
470.109	5.72876457
470.309	5.72918599
470.51	5.73397382
470.711	5.74004656
470.912	5.73590961
471.112	5.73618576
471.313	5.74852279
471.514	5.74820554
471.715	5.75250776
471.915	5.75985283
472.116	5.75616303
472.317	5.75500079
472.517	5.75635773
472.718	5.76768628
472.919	5.77698564
473.119	5.78109563
473.32	5.79148845
473.521	5.79692718
473.721	5.80665482
473.922	5.81728525
474.122	5.81671774
474.323	5.8200644
474.523	5.81930198
474.724	5.81732405
474.925	5.82203135
475.125	5.82834502
475.326	5.83699128
475.526	5.83944857
475.727	5.84905474
475.927	5.86128626
476.127	5.87111703
476.328	5.88188932
476.528	5.89433315
476.729	5.90248032
476.929	5.90690221
477.13	5.91091802
477.33	5.91843074
477.53	5.93260892
477.731	5.93989857
477.931	5.93654125
478.131	5.94093111
478.332	5.94392406
478.532	5.95328736
478.732	5.96595044
478.933	5.9783584
479.133	5.98411568
479.333	5.99103192
479.533	6.00718167
479.734	6.01533971
479.934	6.02492455
480.134	6.02945404
480.334	6.03800622
480.534	6.05307788
480.735	6.06376221
480.935	6.07625705
481.135	6.08076542
481.335	6.09388177
481.535	6.10207705
481.735	6.10698584
481.935	6.12116668
482.136	6.13216283
482.336	6.14371259
482.536	6.15431563
482.736	6.1703239
482.936	6.18278491
483.136	6.19510001
483.336	6.20912939
483.536	6.22675126
483.736	6.23871623
483.936	6.25289506
484.136	6.2649486
484.336	6.27688925
484.536	6.29014107
484.736	6.30034276
484.936	6.31124373
485.135	6.31549083
485.335	6.3263742
485.535	6.33484531
485.735	6.35041047
485.935	6.36280179
486.135	6.37348185
486.335	6.39133406
486.534	6.40614198
486.734	6.42019318
486.934	6.43257255
487.134	6.45176851
487.334	6.47183587
487.533	6.49426649
487.733	6.51300023
487.933	6.53500728
488.133	6.55104016
488.332	6.57141841
488.532	6.59248237
488.732	6.6130331
488.931	6.63501279
489.131	6.65826032
489.331	6.68564815
489.53	6.71355487
489.73	6.73722336
489.93	6.7611967
490.129	6.78663063
490.329	6.81031323
490.528	6.83741325
490.728	6.86201605
490.928	6.88611587
491.127	6.91134983
491.327	6.93067546
491.526	6.95095125
491.726	6.96667128
491.925	6.9925977
492.125	7.01225472
492.324	7.04866412
492.524	7.07630562
492.723	7.11043144
492.922	7.13882509
493.122	7.16514791
493.321	7.19426597
493.521	7.22849009
493.72	7.26398522
493.919	7.30208071
494.119	7.33414293
494.318	7.37330392
494.517	7.40509378
494.717	7.4341181
494.916	7.47106304
495.115	7.51382485
495.315	7.54796571
495.514	7.5845547
495.713	7.62515871
495.912	7.67556736
496.112	7.70683945
496.311	7.75552822
496.51	7.7832408
496.709	7.82520653
496.908	7.86063349
497.108	7.89781833
497.307	7.94258683
497.506	7.9803204
497.705	8.01823938
497.904	8.05620259
498.103	8.09983939
498.302	8.1462215
498.501	8.17987094
498.701	8.22402883
498.9	8.25908391
499.099	8.29252992
499.298	8.32099809
499.497	8.36801493
499.696	8.40522506
499.895	8.44388257
500.094	8.46802356
500.293	8.50329307
500.492	8.53044235
500.691	8.56682068
500.89	8.58882899
501.088	8.61950367
501.287	8.65081731
501.486	8.66175271
501.685	8.69377953
501.884	8.7180979
502.083	8.7431877
502.282	8.75953783
502.481	8.77575138
502.679	8.80438859
502.878	8.82675746
503.077	8.85658801
503.276	8.88561651
503.475	8.91420387
503.673	8.93096065
503.872	8.95092846
504.071	8.97103605
504.27	9.00148428
504.468	9.02443918
504.667	9.04165009
504.866	9.05750561
505.064	9.08267129
505.263	9.08902659
505.462	9.11703867
505.66	9.15283625
505.859	9.16959513
506.058	9.18813026
506.256	9.20012307
506.455	9.22258641
506.653	9.24519404
506.852	9.26135638
507.05	9.27453956
507.249	9.29087688
507.448	9.29912828
507.646	9.31053061
507.845	9.31541573
508.043	9.32652337
508.242	9.33814043
508.44	9.3371447
508.638	9.34962945
508.837	9.35716223
509.035	9.36594684
509.234	9.36657613
509.432	9.37869883
509.631	9.3746162
509.829	9.37697758
510.027	9.38242113
510.226	9.38965445
510.424	9.39879053
510.622	9.3966753
510.821	9.39848894
511.019	9.40277579
511.217	9.40128836
511.415	9.39732106
511.614	9.3949513
511.812	9.40710653
512.01	9.41768821
512.208	9.42408382
512.407	9.42115332
512.605	9.4268709
512.803	9.428101
513.001	9.43421031
513.199	9.4349673
513.398	9.44407495
513.596	9.44892319
513.794	9.45339692
513.992	9.45103301
514.19	9.46025922
514.388	9.46753935
514.586	9.46638813
514.784	9.47340401
514.982	9.48020263
515.18	9.48348075
515.378	9.49525772
515.576	9.49337551
515.774	9.5046697
515.972	9.49920184
516.17	9.50756611
516.368	9.50749664
516.566	9.50585169
516.764	9.51223817
516.962	9.51091179
517.16	9.50191315
517.358	9.50713132
517.556	9.50424575
517.754	9.51498325
517.952	9.51487581
518.149	9.5240323
518.347	9.51264873
518.545	9.51531797
518.743	9.53289791
518.941	9.53874997
519.138	9.53689913
519.336	9.54235506
519.534	9.5459743
519.732	9.55824805
519.929	9.55710672
520.127	9.55524918
520.325	9.5505142
520.523	9.5689867
520.72	9.58477202
520.918	9.59109957
521.116	9.59980231
521.313	9.61343223
521.511	9.61716331
521.709	9.62590456
521.906	9.62759474
522.104	9.65001603
522.301	9.66180598
522.499	9.68984827
522.696	9.69840047
522.894	9.70459106
523.092	9.71095508
523.289	9.72484413
523.487	9.73455278
523.684	9.74760072
523.882	9.7624625
524.079	9.78473907
524.276	9.81587936
524.474	9.84342799
524.671	9.84959902
524.869	9.86804238
525.066	9.88704006
525.264	9.90157129
525.461	9.92172164
525.658	9.94607828
525.856	9.96720264
526.053	9.98632179
526.25	10.00143427
526.448	10.02180636
526.645	10.03751303
526.842	10.05350125
527.039	10.07250225
527.237	10.09006806
527.434	10.10578517
527.631	10.12664246
527.828	10.15118601
528.026	10.17342423
528.223	10.19264488
528.42	10.21150763
528.617	10.23407927
528.814	10.25859575
529.012	10.28108181
529.209	10.3096702
529.406	10.33346926
529.603	10.36721155
529.8	10.39263588
529.997	10.42180939
530.194	10.45177076
530.391	10.47172341
530.588	10.49913243
530.785	10.52676509
530.982	10.5592706
531.179	10.58543766
531.376	10.61810107
531.573	10.65138394
531.77	10.67597232
531.967	10.70507301
532.164	10.73139953
532.361	10.76617609
532.558	10.79728296
532.755	10.82463298
532.952	10.8624837
533.149	10.89669618
533.346	10.93098789
533.543	10.96844397
533.739	10.99136628
533.936	11.02988214
534.133	11.06254745
534.33	11.09804946
534.527	11.1382561
534.723	11.18016973
534.92	11.21602655
535.117	11.25202874
535.314	11.2912394
535.51	11.34015321
535.707	11.3826483
535.904	11.43758206
536.1	11.48387791
536.297	11.53692366
536.494	11.59019941
536.69	11.64341209
536.887	11.69778338
537.084	11.76494622
537.28	11.81798161
537.477	11.87491361
537.674	11.94025727
537.87	12.0104621
538.067	12.06679467
538.263	12.13600175
538.46	12.20271217
538.656	12.28311321
538.853	12.34916339
539.049	12.41831089
539.246	12.49663206
539.442	12.56746279
539.639	12.62424235
539.835	12.69374976
540.032	12.74602188
540.228	12.80491696
540.424	12.86985134
540.621	12.92608801
540.817	12.98786717
541.014	13.05176735
541.21	13.09463822
541.406	13.16035426
541.603	13.22148588
541.799	13.28628433
541.995	13.34439944
542.191	13.41319248
542.388	13.4683368
542.584	13.52217732
542.78	13.56972053
542.976	13.62302415
543.173	13.67256983
543.369	13.72262226
543.565	13.7862122
543.761	13.84795665
543.957	13.90783374
544.154	13.97776005
544.35	14.04499041
544.546	14.10040237
544.742	14.16793041
544.938	14.23034289
545.134	14.2919435
545.33	14.3601509
545.526	14.42295785
545.722	14.48034826
545.919	14.53768926
546.115	14.59961332
546.311	14.66158646
546.507	14.727276
546.703	14.8085099
546.899	14.8880007
547.095	14.9572373
547.29	15.0474765
547.486	15.12495737
547.682	15.19675158
547.878	15.28134824
548.074	15.36609581
548.27	15.45303637
548.466	15.54479999
548.662	15.63979127
548.858	15.7296229
549.053	15.81864306
549.249	15.91391834
549.445	16.00188382
549.641	16.08600461
549.837	16.18974126
550.032	16.28385806
550.228	16.38408214
550.424	16.47639247
550.62	16.57358627
550.815	16.65399486
551.011	16.72489473
551.207	16.8148389
551.402	16.90161839
551.598	16.99318848
551.794	17.07486644
551.989	17.14549675
552.185	17.21522235
552.381	17.29025391
552.576	17.35673929
552.772	17.4399828
552.967	17.52168979
553.163	17.60374431
553.359	17.67176465
553.554	17.75325341
553.75	17.82627154
553.945	17.89682975
554.141	17.96851281
554.336	18.03667164
554.532	18.09935429
554.727	18.1722438
554.922	18.23175812
555.118	18.30883278
555.313	18.38283597
555.509	18.4388615
555.704	18.49881273
555.899	18.57071873
556.095	18.65354734
556.29	18.71084968
556.486	18.7839042
556.681	18.8564566
556.876	18.91006775
557.071	18.95271318
557.267	19.01926495
557.462	19.08483517
557.657	19.15858744
557.853	19.22763173
558.048	19.27822064
558.243	19.35356915
558.438	19.42868699
558.633	19.49334611
558.829	19.5535396
559.024	19.63633093
559.219	19.70241502
559.414	19.76527
559.609	19.82496947
559.804	19.88350728
559.999	19.948655
560.194	20.0101214
560.39	20.07097068
560.585	20.12465167
560.78	20.18224452
560.975	20.25117246
561.17	20.31913257
561.365	20.3858092
561.56	20.44197107
561.755	20.50380366
561.95	20.56736383
562.145	20.64428374
562.34	20.70169278
562.535	20.7300456
562.729	20.79163565
562.924	20.84472088
563.119	20.87925488
563.314	20.92368746
563.509	20.97516819
563.704	21.0497263
563.899	21.10905799
564.093	21.15464453
564.288	21.1878018
564.483	21.25539368
564.678	21.30992959
564.873	21.36682171
565.067	21.4221566
565.262	21.47555034
565.457	21.51468815
565.652	21.56984311
565.846	21.61896648
566.041	21.66872666
566.236	21.70567737
566.43	21.74305839
566.625	21.81439686
566.82	21.86807711
567.014	21.91901841
567.209	21.98531739
567.404	22.05428902
567.598	22.12421934
567.793	22.17157627
567.987	22.22825836
568.182	22.26916076
568.376	22.34613804
568.571	22.39316053
568.765	22.4446282
568.96	22.50341506
569.154	22.55400866
569.349	22.62101355
569.543	22.67091127
569.738	22.72619082
569.932	22.7722297
570.127	22.83697165
570.321	22.90270538
570.515	22.96289293
570.71	23.01363978
570.904	23.07929369
571.098	23.13178697
571.293	23.1909119
571.487	23.25750156
571.681	23.3153955
571.876	23.38209788
572.07	23.45445159
572.264	23.52624542
572.458	23.59258517
572.653	23.66660009
572.847	23.7312387
573.041	23.80052547
573.235	23.88011631
573.43	23.95094265
573.624	24.03477797
573.818	24.11315137
574.012	24.20366101
574.206	24.27868461
574.4	24.35304597
574.594	24.43843551
574.788	24.52697667
574.983	24.59937384
575.177	24.69309803
575.371	24.79359807
575.565	24.88134276
575.759	24.97158743
575.953	25.0609303
576.147	25.16057841
576.341	25.28491472
576.535	25.3903212
576.729	25.52525034
576.923	25.66589722
577.117	25.78779532
577.31	25.9244152
577.504	26.07282504
577.698	26.22847721
577.892	26.38637039
578.086	26.54807205
578.28	26.72251339
578.474	26.91753276
578.668	27.12187588
578.861	27.34097809
579.055	27.56505452
579.249	27.79493109
579.443	28.03197681
579.636	28.27345997
579.83	28.52689546
580.024	28.796528
580.218	29.08835456
580.411	29.38013031
580.605	29.69460797
580.799	29.99222398
580.992	30.30178784
581.186	30.64873614
581.38	30.99557298
581.573	31.3675019
581.767	31.7640834
581.961	32.18558177
582.154	32.58553871
582.348	33.01732375
582.541	33.45318239
582.735	33.88530867
582.928	34.34200017
583.122	34.81854525
583.315	35.3105433
583.509	35.80518411
583.702	36.32776078
583.896	36.85478365
584.089	37.41654084
584.283	37.95139533
584.476	38.51047596
584.67	39.0833741
584.863	39.67606615
585.056	40.27009757
585.25	40.87731069
585.443	41.4988217
585.636	42.09182334
585.83	42.71672338
586.023	43.33127403
586.216	43.97039042
586.41	44.60403083
586.603	45.23966214
586.796	45.90212693
586.989	46.534464
587.183	47.1826512
587.376	47.81568342
587.569	48.47819258
587.762	49.09949629
587.955	49.75147299
588.149	50.36304341
588.342	51.01252703
588.535	51.62414483
588.728	52.24948376
588.921	52.87387749
589.114	53.50340307
589.307	54.11567767
589.5	54.7190936
589.693	55.3267273
589.886	55.90667537
590.08	56.48009807
590.273	57.0479777
590.466	57.62604932
590.659	58.19885779
590.852	58.73988623
591.044	59.29119556
591.237	59.8268843
591.43	60.3695862
591.623	60.90762047
591.816	61.44967011
592.009	61.93307218
592.202	62.45133181
592.395	62.94731851
592.588	63.46675387
592.781	63.95714796
592.973	64.42646569
593.166	64.90454471
593.359	65.3415403
593.552	65.76603072
593.745	66.20375066
593.937	66.62356707
594.13	67.0284869
594.323	67.46281517
594.515	67.84641962
594.708	68.19402679
594.901	68.57767824
595.094	68.93255931
595.286	69.28226895
595.479	69.63808643
595.672	69.92475236
595.864	70.24380329
596.057	70.57340402
596.249	70.83971191
596.442	71.11392251
596.635	71.37352048
596.827	71.62066759
597.02	71.86681125
597.212	72.08464753
597.405	72.32402625
597.597	72.57826118
597.79	72.779567
597.982	73.0032136
598.175	73.2217862
598.367	73.42360835
598.559	73.62341581
598.752	73.83657407
598.944	74.00981365
599.137	74.20037391
599.329	74.38708309
599.521	74.53891435
599.714	74.72616512
599.906	74.88054285
600.098	75.06212897
600.291	75.26177789
600.483	75.44823857
600.675	75.58864523
600.868	75.7500789
601.06	75.911778
601.252	76.06776949
601.444	76.21506625
601.637	76.35019295
601.829	76.50755622
602.021	76.64537774
602.213	76.78404919
602.405	76.87373093
602.597	77.00544257
602.789	77.1416756
602.982	77.29277417
603.174	77.45082673
603.366	77.57499511
603.558	77.69320758
603.75	77.79555069
603.942	77.9044783
604.134	77.9958809
604.326	78.09487291
604.518	78.18370073
604.71	78.29179946
604.902	78.39575009
605.094	78.50146582
605.286	78.57625266
605.478	78.66779586
605.67	78.75532194
605.862	78.84659986
606.054	78.91961335
606.246	78.99246502
606.437	79.11498528
606.629	79.15053902
606.821	79.20739755
607.013	79.26918871
607.205	79.29253321
607.397	79.34201061
607.588	79.41104943
607.78	79.47458417
607.972	79.54591749
608.164	79.59012582
608.355	79.63842338
608.547	79.70149973
608.739	79.77223055
608.93	79.7984341
609.122	79.82345547
609.314	79.88343135
609.505	79.92868454
609.697	79.95625253
609.889	80.01103109
610.08	80.08229461
610.272	80.12664535
610.463	80.14085764
610.655	80.21136099
610.847	80.25793758
611.038	80.27985255
611.23	80.34080965
611.421	80.35397174
611.613	80.3813418
611.804	80.40925528
611.996	80.40813898
612.187	80.42542749
612.379	80.47183534
612.57	80.46395664
612.761	80.4870017
612.953	80.52653305
613.144	80.55400418
613.336	80.63510518
613.527	80.67808331
613.718	80.70022555
613.91	80.73379015
614.101	80.73539933
614.292	80.75278583
614.483	80.79809485
614.675	80.83700516
614.866	80.85483658
615.057	80.88384117
615.248	80.87982708
615.44	80.97425717
615.631	81.04644523
615.822	81.09608875
616.013	81.15825698
616.204	81.22078107
616.396	81.25852227
616.587	81.31747149
616.778	81.33681092
616.969	81.37571739
617.16	81.43166751
617.351	81.43263879
617.542	81.49529908
617.733	81.54273559
617.924	81.54081534
618.115	81.56144169
618.306	81.57061288
618.497	81.60204898
618.688	81.64315284
618.879	81.67636607
619.07	81.70330143
619.261	81.75155109
619.452	81.73075671
619.643	81.74749072
619.834	81.75812508
620.025	81.75122136
620.216	81.79284176
620.407	81.78127429
620.597	81.77847715
620.788	81.81440767
620.979	81.8935985
621.17	81.92918369
621.361	81.91022791
621.551	81.90749719
621.742	81.91592197
621.933	81.94579057
622.124	82.00286365
622.314	82.05733749
622.505	82.06707603
622.696	82.07147966
622.886	82.10667059
623.077	82.12165225
623.268	82.14209206
623.458	82.19810884
623.649	82.19735258
623.84	82.21226712
624.03	82.28121154
624.221	82.25954878
624.411	82.26756727
624.602	82.32494918
624.792	82.36558332
624.983	82.33002916
625.173	82.32303526
625.364	82.38555933
625.554	82.37972419
625.745	82.42131913
625.935	82.43765734
626.126	82.40662002
626.316	82.40682739
626.507	82.42874921
626.697	82.44750679
626.887	82.4253157
627.078	82.43284385
627.268	82.44871395
627.458	82.42320787
627.649	82.42646294
627.839	82.43806769
628.029	82.43159084
628.22	82.42713768
628.41	82.43674591
628.6	82.40670749
628.79	82.36245985
628.981	82.37871901
629.171	82.3620008
629.361	82.35927533
629.551	82.38901896
629.741	82.39503673
629.932	82.39171823
630.122	82.44533368
630.312	82.4431956
630.502	82.40777393
630.692	82.3692109
630.882	82.42814948
631.072	82.40215662
631.262	82.36952608
631.452	82.37903899
631.642	82.40069932
631.832	82.42216249
632.022	82.42259923
632.212	82.46652401
632.402	82.5023236
632.592	82.5229272
632.782	82.54120679
632.972	82.54476191
633.162	82.57690917
633.352	82.56301306
633.542	82.5845138
633.732	82.57668975
633.922	82.59139092
634.111	82.57909171
634.301	82.62153931
634.491	82.67940019
634.681	82.71481728
634.871	82.68206945
635.06	82.72081944
635.25	82.78347319
635.44	82.81613715
635.63	82.80231414
635.819	82.80539287
636.009	82.83265412
636.199	82.83383217
636.388	82.84513652
636.578	82.88791334
636.768	82.91565195
636.957	82.95113177
637.147	82.98472383
637.337	83.03152866
637.526	83.00435207
637.716	83.02772015
637.905	83.0703917
638.095	83.08524066
638.284	83.08666351
638.474	83.10581245
638.663	83.12092279
638.853	83.1187005
639.042	83.12906289
639.232	83.14957534
639.421	83.12935157
639.611	83.14272813
639.8	83.13176306
639.99	83.10474337
640.179	83.10812507
640.368	83.07551474
640.558	83.0491818
640.747	83.05965252
640.936	83.0493181
641.126	83.0210782
641.315	83.01513964
641.504	83.03715908
641.694	83.03285977
641.883	83.00191723
642.072	83.00760261
642.261	83.02179533
642.451	82.99311745
642.64	82.99526953
642.829	82.99609119
643.018	83.0085616
643.207	82.97218593
643.397	82.9865437
643.586	82.98961934
643.775	82.95953736
643.964	82.97686396
644.153	82.96538976
644.342	82.99718791
644.531	83.0175479
644.72	83.00906512
644.909	83.00429913
645.098	83.00759135
645.287	82.99893333
645.476	82.98910014
645.665	82.95785401
645.854	82.9883076
646.043	82.99162585
646.232	82.98901864
646.421	82.97922006
646.61	82.97871821
646.799	83.03838111
646.988	83.05696456
647.177	83.06754307
647.365	83.07085277
647.554	83.04465703
647.743	83.07150807
647.932	83.09299214
648.121	83.10493461
648.309	83.06823717
648.498	83.03412347
648.687	83.05180986
648.876	83.03969971
649.064	83.02565198
649.253	82.99771658
649.442	82.99353899
649.63	83.02857825
649.819	83.0026568
650.008	82.96804752
650.196	82.94841458
650.385	82.98677153
650.574	82.99031129
650.762	82.96705338
650.951	82.9448173
651.139	82.92264395
651.328	82.91149159
651.516	82.92319362
651.705	82.95314366
651.893	82.93052826
652.082	82.93338755
652.27	82.99330636
652.459	83.01474864
652.647	82.95876271
652.836	82.9936533
653.024	83.01495354
653.213	83.05127713
653.401	83.07189274
653.589	83.05549968
653.778	83.07209784
653.966	83.08128342
654.154	83.06981648
654.343	83.07660827
654.531	83.06952406
654.719	83.07460348
654.908	83.05645183
655.096	83.06833685
655.284	83.10585245
655.472	83.1434926
655.661	83.16377805
655.849	83.14730096
656.037	83.15445367
656.225	83.1603423
656.413	83.13967097
656.601	83.17333538
656.79	83.18206339
656.978	83.19025937
657.166	83.25015863
657.354	83.2155161
657.542	83.24857039
657.73	83.23805745
657.918	83.26820143
658.106	83.29278452
658.294	83.2583933
658.482	83.27331343
658.67	83.27020621
658.858	83.30686715
659.046	83.30470813
659.234	83.29248744
659.422	83.28765935
659.61	83.2809576
659.798	83.27418281
659.986	83.22983102
660.173	83.21096898
660.361	83.24006571
660.549	83.25386163
660.737	83.2403184
660.925	83.23864476
661.113	83.16032327
661.3	83.20535635
661.488	83.21052258
661.676	83.24850834
661.864	83.24090802
662.051	83.22770668
662.239	83.22554144
662.427	83.22888608
662.614	83.20924145
662.802	83.2083705
662.99	83.21894014
663.177	83.1668025
663.365	83.15150238
663.553	83.10720427
663.74	83.11437207
663.928	83.16338727
664.115	83.12661921
664.303	83.11573972
664.49	83.12520251
664.678	83.08952775
664.866	83.09630262
665.053	83.11560859
665.24	83.09634151
665.428	83.06589754
665.615	83.0241876
665.803	82.98327171
665.99	83.00012242
666.178	83.01660625
666.365	83.02476145
666.552	83.06641685
666.74	83.02335234
666.927	83.06008706
667.114	83.14431862
667.302	83.1710513
667.489	83.24722999
667.676	83.26522522
667.864	83.29206103
668.051	83.29163925
668.238	83.29680452
668.425	83.28390909
668.613	83.34668702
668.8	83.35374544
668.987	83.3646414
669.174	83.37804115
669.361	83.42136942
669.548	83.42610915
669.736	83.4538134
669.923	83.44561476
670.11	83.40894351
670.297	83.32793927
670.484	83.33099179
670.671	83.37208644
670.858	83.34748656
671.045	83.30683611
671.232	83.30699102
671.419	83.23341375
671.606	83.28135824
671.793	83.24945347
671.98	83.27698858
672.167	83.27809662
672.354	83.25544609
672.541	83.25089632
672.728	83.26588049
672.915	83.22534953
673.101	83.26790791
673.288	83.23122217
673.475	83.21651381
673.662	83.21787401
673.849	83.26618349
674.035	83.33181415
674.222	83.40137167
674.409	83.39316291
674.596	83.43073896
674.783	83.44013318
674.969	83.41917316
675.156	83.43044417
675.343	83.48170823
675.529	83.47140325
675.716	83.48784985
675.903	83.5069507
676.089	83.5204292
676.276	83.53974924
676.462	83.50327465
676.649	83.47402274
676.836	83.51869365
677.022	83.52191204
677.209	83.56635898
677.395	83.57720854
677.582	83.57010715
677.768	83.524733
677.955	83.54938466
678.141	83.56212663
678.328	83.54872972
678.514	83.5237089
678.701	83.49578243
678.887	83.55444352
679.073	83.50855542
679.26	83.48462351
679.446	83.45098306
679.632	83.43198839
679.819	83.40685632
680.005	83.37242671
680.191	83.355159
680.378	83.37831774
680.564	83.38747261
680.75	83.37186838
680.936	83.30768484
681.123	83.28143083
681.309	83.30476747
681.495	83.31202615
681.681	83.30609621
681.867	83.30883104
682.054	83.31998728
682.24	83.31317215
682.426	83.31473786
682.612	83.31588784
682.798	83.28449289
682.984	83.30539537
683.17	83.29486493
683.356	83.27785426
683.542	83.30032766
683.728	83.33587973
683.914	83.37746185
684.1	83.37972908
684.286	83.34664592
684.472	83.30908659
684.658	83.28889744
684.844	83.30716975
685.03	83.30522761
685.216	83.27315189
685.402	83.26339205
685.588	83.24812813
685.774	83.15799929
685.96	83.10797849
686.145	83.13268643
686.331	83.07223945
686.517	83.05145357
686.703	83.01815499
686.889	82.98362743
687.074	82.98255338
687.26	83.01588198
687.446	82.99301348
687.631	82.98829324
687.817	82.9530148
688.003	82.93900106
688.189	82.92856309
688.374	82.90537247
688.56	82.90920565
688.745	82.92881668
688.931	82.90635115
689.117	82.92788184
689.302	82.89456625
689.488	82.94218234
689.673	82.96940369
689.859	82.93965044
690.044	82.92551364
690.23	82.93680535
690.415	82.96671643
690.601	82.99566481
690.786	83.02022873
690.972	83.05619658
691.157	83.05236695
691.343	83.05054841
691.528	83.02043498
691.713	83.0548501
691.899	83.06293473
692.084	83.08322164
692.269	83.12605197
692.455	83.13190908
692.64	83.0988299
692.825	83.1532811
693.011	83.10341156
693.196	83.1554764
693.381	83.1323499
693.566	83.14206012
693.752	83.19521622
693.937	83.21627052
694.122	83.23805085
694.307	83.23210643
694.492	83.23001216
694.678	83.24334889
694.863	83.25398089
695.048	83.26368574
695.233	83.26317207
695.418	83.23335128
695.603	83.20439901
695.788	83.20744652
695.973	83.27664924
696.158	83.28592068
696.343	83.28217262
696.528	83.27259148
696.713	83.18731842
696.898	83.26217374
697.083	83.24897525
697.268	83.18588216
697.453	83.22337473
697.638	83.27498128
697.823	83.24807641
698.008	83.26503327
698.192	83.29096802
698.377	83.29716007
698.562	83.28283645
698.747	83.27202592
698.932	83.30668064
699.117	83.30321505
699.301	83.3234265
699.486	83.34580562
699.671	83.35176626
699.856	83.28613722
700.04	83.27662426
700.225	83.283044
700.41	83.31016678
700.594	83.36919491
700.779	83.30772203
700.964	83.32564619
701.148	83.37882297
701.333	83.34628019
701.517	83.30167476
701.702	83.28083229
701.887	83.27588696
702.071	83.26566248
702.256	83.26994355
702.44	83.259526
702.625	83.22071506
702.809	83.18190283
702.994	83.17100685
703.178	83.14985324
703.362	83.1692883
703.547	83.13850768
703.731	83.11525931
703.916	83.12187567
704.1	83.15081886
704.284	83.15866891
704.469	83.14398811
704.653	83.23256294
704.837	83.21552086
705.022	83.21783996
705.206	83.23620209
705.39	83.219946
705.575	83.26512654
705.759	83.24173099
705.943	83.19978523
706.127	83.17481247
706.311	83.22974196
706.496	83.22393452
706.68	83.20550361
706.864	83.25132946
707.048	83.28887678
707.232	83.20328888
707.416	83.25454319
707.6	83.31956586
707.785	83.33489977
707.969	83.3341279
708.153	83.29135514
708.337	83.24712026
708.521	83.20719863
708.705	83.20839158
708.889	83.19578126
709.073	83.15067397
709.257	83.19771641
709.441	83.18718437
709.624	83.2237794
709.808	83.26197663
709.992	83.24607959
710.176	83.21792212
710.36	83.20839424
710.544	83.23017857
710.728	83.2357107
710.912	83.23130924
711.095	83.27400478
711.279	83.2697894
711.463	83.24879489
711.647	83.20829389
711.83	83.17777752
712.014	83.19468272
712.198	83.22661505
712.382	83.21858228
712.565	83.26722278
712.749	83.29306236
712.933	83.31425166
713.116	83.26872136
713.3	83.2536735
713.483	83.23922039
713.667	83.20984408
713.851	83.24321579
714.034	83.2397416
714.218	83.31247567
714.401	83.33998818
714.585	83.28738799
714.768	83.28490082
714.952	83.30964728
715.135	83.30792395
715.319	83.33824512
715.502	83.39825884
715.686	83.42631998
715.869	83.45189575
716.052	83.50149908
716.236	83.48311808
716.419	83.4785499
716.602	83.55592582
716.786	83.55223847
716.969	83.58146379
717.152	83.62861059
717.336	83.66381644
717.519	83.67347808
717.702	83.71922048
717.885	83.73245798
718.069	83.71043131
718.252	83.64438108
718.435	83.71804931
718.618	83.75224943
718.801	83.73849712
718.985	83.75331985
719.168	83.78106267
719.351	83.65741099
719.534	83.66151122
719.717	83.68274193
719.9	83.65743732
720.083	83.65439902
720.266	83.6912622
720.449	83.58565488
720.632	83.60392927
720.815	83.64000761
720.998	83.67015875
721.181	83.66152367
721.364	83.6765627
721.547	83.62444978
721.73	83.6371057
721.913	83.61108232
722.096	83.6322709
722.279	83.63352617
722.461	83.63486794
722.644	83.65170016
722.827	83.66064592
723.01	83.57453548
723.193	83.75768717
723.376	83.74240188
723.558	83.74534672
723.741	83.74889714
723.924	83.78437259
724.107	83.76971754
724.289	83.75998218
724.472	83.81194912
724.655	83.83974642
724.837	83.81272866
725.02	83.79692391
725.203	83.86746482
725.385	83.89082885
725.568	83.92446075
725.75	83.90815608
725.933	83.9463232
726.115	83.93224663
726.298	83.88833448
726.481	83.89047762
726.663	83.88305685
726.845	83.95812606
727.028	83.929354
727.21	83.98247535
727.393	83.93188583
727.575	83.9171377
727.758	83.91127908
727.94	83.88895688
728.122	83.98688566
728.305	83.95581425
728.487	83.93465187
728.67	83.89066703
728.852	83.94709878
729.034	83.92881448
729.216	83.90985509
729.399	83.86488476
729.581	83.90019338
729.763	83.8378153
729.945	83.8248404
730.128	83.87022218
730.31	83.84473833
730.492	83.87853354
730.674	83.84705248
730.856	83.83858115
731.039	83.80117593
731.221	83.82518081
731.403	83.9332442
731.585	83.87158983
731.767	83.85956815
731.949	83.80771467
732.131	83.79783913
732.313	83.79334859
732.495	83.83838927
732.677	83.77523138
732.859	83.77228182
733.041	83.84948481
733.223	83.85226323
733.405	83.82284727
733.587	83.9225749
733.769	83.87614305
733.951	83.85174093
734.132	83.87574254
734.314	83.9101595
734.496	83.92909606
734.678	83.92340824
734.86	83.95276472
735.042	83.96425976
735.223	83.86734717
735.405	83.92970361
735.587	83.88849449
735.769	83.86726574
735.95	83.82186253
736.132	83.82277029
736.314	83.80079679
736.495	83.84000359
736.677	83.81842945
736.859	83.74244846
737.04	83.76541919
737.222	83.78684392
737.403	83.6728398
737.585	83.71976582
737.767	83.78437133
737.948	83.8056243
738.13	83.77509999
738.311	83.78631178
738.493	83.74935634
738.674	83.75283349
738.856	83.72167093
739.037	83.67023713
739.219	83.63666292
739.4	83.65661629
739.581	83.70366607
739.763	83.71390599
739.944	83.78962083
740.125	83.78053983
740.307	83.74125623
740.488	83.6886423
740.669	83.80047483
740.851	83.91858849
741.032	83.92395216
741.213	83.97338867
741.395	84.02222059
741.576	83.9924364
741.757	83.97646752
741.938	83.96088878
742.119	84.00385052
742.301	84.04764864
742.482	83.98561043
742.663	84.10734839
742.844	84.26127649
743.025	84.31827451
743.206	84.28258192
743.387	84.28743233
743.568	84.35403825
743.749	84.24273223
743.93	84.26613904
744.111	84.3386867
744.292	84.45157097
744.473	84.38553808
744.654	84.2219756
744.835	84.25098879
745.016	84.32585756
745.197	84.34395691
745.378	84.34982531
745.559	84.33806669
745.74	84.4174491
745.921	84.40039417
746.102	84.47347497
746.282	84.59529564
746.463	84.49236844
746.644	84.42182158
746.825	84.44879083
747.006	84.5104553
747.186	84.4729495
747.367	84.47117289
747.548	84.49771062
747.728	84.56799465
747.909	84.54765428
748.09	84.54224266
748.27	84.44537096
748.451	84.50348791
748.632	84.55334026
748.812	84.57495688
748.993	84.53473962
749.173	84.55563006
749.354	84.53818438
749.535	84.50417562
749.715	84.46850238
749.896	84.3426337
750.076	84.34913804
750.257	84.39853471
750.437	84.39537804
750.618	84.3797267
750.798	84.38933015
750.978	84.41794527
751.159	84.39596326
751.339	84.43240901
751.52	84.43583959
751.7	84.38944085
751.88	84.31562384
752.061	84.39899137
752.241	84.43893384
752.421	84.40443298
752.601	84.32910462
752.782	84.35808781
752.962	84.29477052
753.142	84.24284619
753.322	84.24969811
753.503	84.22717237
753.683	84.29527969
753.863	84.25180195
754.043	84.17153832
754.223	84.1947116
754.403	84.26521047
754.583	84.28444909
754.764	84.32441096
754.944	84.39219776
755.124	84.31698348
755.304	84.26139429
755.484	84.32171051
755.664	84.34330555
755.844	84.32321948
756.024	84.32468223
756.204	84.26035186
756.384	84.22858414
756.564	84.23197084
756.743	84.31561007
756.923	84.35961585
757.103	84.23933359
757.283	84.21700399
757.463	84.22980874
757.643	84.25186641
757.823	84.32977399
758.002	84.30383078
758.182	84.21898303
758.362	84.24000342
758.542	84.23705499
758.721	84.2314608
758.901	84.18498723
759.081	84.12143049
759.261	84.05837805
759.44	84.09774337
759.62	84.16485167
759.8	84.12433684
759.979	84.11447323
760.159	84.14062713
760.338	84.1443845
760.518	84.1312844
760.698	84.13448036
760.877	84.26904909
761.057	84.39288428
761.236	84.32209453
761.416	84.15805365
761.595	84.0700746
761.775	84.12233365
761.954	84.18144863
762.133	84.12870203
762.313	84.12143808
762.492	84.16795936
762.672	84.19977632
762.851	84.26295347
763.03	84.28506816
763.21	84.29398924
763.389	84.30351229
763.568	84.24190956
763.748	84.29424516
763.927	84.35437306
764.106	84.22512502
764.286	84.26510844
764.465	84.31716151
764.644	84.25277864
764.823	84.20984615
765.002	84.27816841
765.182	84.50828098
765.361	84.58237118
765.54	84.50766592
765.719	84.38964565
765.898	84.50574947
766.077	84.53132356
766.256	84.51018086
766.435	84.50288174
766.614	84.41796588
766.793	84.48577292
766.972	84.43529243
767.151	84.43996893
767.33	84.61544871
767.509	84.70641368
767.688	84.65288402
767.867	84.78441059
768.046	84.81498335
768.225	84.87702779
768.404	84.99659799
768.583	85.01362887
768.762	84.91185441
768.94	84.76168548
769.119	84.80026856
769.298	84.87034115
769.477	84.95483801
769.656	85.07779806
769.834	85.07612734
770.013	85.07313177
770.192	85.16741358
770.37	85.40903176
770.549	85.43766813
770.728	85.52788203
770.906	85.48207187
771.085	85.48608763
771.264	85.54723677
771.442	85.56539131
771.621	85.52596357
771.799	85.53716081
771.978	85.49050207
772.157	85.39704554
772.335	85.43599071
772.514	85.65919721
772.692	85.67196838
772.871	85.63744624
773.049	85.57225812
773.228	85.47853613
773.406	85.29214183
773.584	85.22977594
773.763	85.32268601
773.941	85.47793782
774.119	85.49728348
774.298	85.48750325
774.476	85.55960949
774.655	85.66547334
774.833	85.57072752
775.011	85.49757
775.189	85.56162915
775.368	85.8262416
775.546	85.72328416
775.724	85.7426513
775.902	85.7444054
776.08	85.62131234
776.259	85.55093647
776.437	85.56465937
776.615	85.54408488
776.793	85.68907733
776.971	85.85019444
777.149	85.85006197
777.327	86.0419845
777.505	85.99193978
777.683	85.73257816
777.861	85.46312471
778.04	85.36998043
778.218	85.21949518
778.395	85.20579026
778.573	85.22859077
778.751	85.15335954
778.929	85.15615006
779.107	84.95916172
779.285	84.82988651
779.463	84.93581362
779.641	84.84283032
779.819	84.98293917
779.997	84.8985845
780.174	85.07642808
780.352	85.25237239
780.53	85.16655257
780.708	85.04032721
780.886	84.92954804
781.063	84.7339161
781.241	84.77177343
781.419	84.96143508
781.596	85.16388107
781.774	85.30302999
781.952	85.2813306
782.129	85.29817111
782.307	85.22768674
782.485	85.26115607
782.662	85.26584193
782.84	85.51536752
783.017	85.83504654
783.195	85.63191988
783.372	85.7546554
783.55	85.57628536
783.727	85.75203302
783.905	85.68339226
784.082	85.58006123
784.26	85.51334214
784.437	85.73447318
784.615	85.91647674
784.792	85.98512698
784.969	85.63147629
785.147	85.60157476
785.324	85.42739268
785.501	85.35421802
785.679	85.40889562
785.856	85.35793057
786.033	85.56199341
786.211	85.39631655
786.388	85.45118338
786.565	85.34411226
786.742	85.13838277
786.92	85.1749216
787.097	85.20926216
787.274	85.3369492
787.451	85.30366343
787.628	85.20233862
787.805	85.20493124
787.982	85.32133705
788.16	85.41020891
788.337	85.1208327
788.514	85.09023682
788.691	85.49913142
788.868	85.57507932
789.045	85.6049974
789.222	85.39383991
789.399	85.5588442
789.576	85.51792073
789.753	85.28357397
789.93	85.43634271
790.106	85.51237183
790.283	85.34601548
790.46	85.49966685
790.637	85.53453841
790.814	85.38507579
790.991	85.16178357
791.168	85.10110321
791.344	84.9758954
791.521	85.22769178
791.698	85.38138939
791.875	85.25937769
792.051	85.28635198
792.228	85.49760154
792.405	85.15081334
792.581	85.10170954
792.758	85.25261947
792.935	85.55611907
793.111	85.54138589
793.288	85.50001531
793.465	85.59527234
793.641	85.58726168
793.818	85.49291407
793.994	85.65004603
794.171	85.60174626
794.347	85.59903288
794.524	85.70744694
794.7	85.81055941
794.877	85.92585748
795.053	85.91327836
795.23	85.69408563
795.406	85.37087506
795.583	85.45728023
795.759	85.7461945
795.935	85.85960621
796.112	86.07205058
796.288	85.69202111
796.464	85.80272795
796.641	85.7968597
796.817	85.83284335
796.993	85.97147409
797.169	85.8610329
797.346	85.99656793
797.522	86.02554651
797.698	86.03008225
797.874	85.90889831
798.051	85.90679238
798.227	86.13300714
798.403	86.09659164
798.579	85.96645375
798.755	86.18827777
798.931	85.93288331
799.107	86.09633334
799.283	86.33691893
799.459	86.43807421
799.635	85.98059099
799.811	85.90654168
799.987	86.28809668
800.163	86.27450307
800.339	86.41961188
800.515	85.88865194
800.691	85.84905992
800.867	86.10872823
801.043	86.49090603
801.219	86.58505336
801.395	86.63013421
801.571	86.86833612
801.746	86.84554853
801.922	86.2673059
802.098	86.56202784
802.274	86.41792658
802.45	86.35471143
802.625	86.62769842
802.801	86.82897822
802.977	86.64311517
803.152	86.37292081
803.328	86.56596166
803.504	86.60784623
803.679	86.61536857
803.855	86.33689934
804.031	85.97482215
804.206	86.45703624
804.382	86.40633575
804.557	86.21972427
804.733	85.62361168
804.909	85.57042193
805.084	84.9752594
805.26	84.54400991
805.435	84.56536974
805.61	85.05976512
805.786	84.9829611
805.961	85.01639778
806.137	84.87836498
806.312	85.07930326
806.488	84.6031545
806.663	84.33247387
806.838	84.49040212
807.014	84.50203229
807.189	84.52699104
807.364	84.54969122
807.54	84.6077871
807.715	84.66112925
807.89	84.68806344
808.065	84.62736489
808.241	84.5825362
808.416	84.86137779
808.591	84.85451872
808.766	85.29335302
808.941	85.27598247
809.116	85.28232166
809.291	85.48095294
809.467	85.55554987
809.642	85.71937157
809.817	86.01891919
809.992	85.69369388
810.167	85.99270929
810.342	86.07548357
810.517	86.09655379
810.692	86.23124923
810.867	86.01754453
811.042	86.00611581
811.217	86.41487386
811.392	86.7195287
811.567	86.53445556
811.741	86.39884899
811.916	86.66575811
812.091	86.43992353
812.266	86.59695109
812.441	86.67077957
812.616	87.250327
812.79	87.28029735
812.965	86.54810526
813.14	86.51559772
813.315	86.38759171
813.489	86.20901153
813.664	86.39505275
813.839	86.33011813
814.013	86.67189835
814.188	86.75523607
814.363	86.64575528
814.537	86.68149977
814.712	86.57589227
814.887	86.72649351
815.061	86.25075122
815.236	86.54624056
815.41	86.72321656
815.585	86.93514662
815.759	86.95698247
815.934	86.4219779
816.108	86.50460703
816.283	86.2717954
816.457	86.34310494
816.631	86.48593782
816.806	86.34265973
816.98	86.37467412
817.155	86.32378726
817.329	85.88300226
817.503	86.06951332
817.678	85.59196352
817.852	85.09493228
818.026	84.81984313
818.201	84.81265118
818.375	84.95292819
818.549	84.4267888
818.723	84.43313942
818.897	84.34884437
819.072	84.16783113
819.246	83.88002162
819.42	83.88147628
819.594	83.82692274
819.768	83.82207403
819.942	83.90592055
820.116	83.83915062
820.29	83.88690544
820.465	84.028543
820.639	84.01756612
820.813	84.01282069
820.987	84.26349468
821.161	84.34252581
821.335	84.26072007
821.509	84.41266413
821.682	84.44827525
821.856	84.55401802
822.03	84.53069657
822.204	84.79459513
822.378	85.0306191
822.552	84.98214673
822.726	85.26172409
822.9	85.42422061
823.073	85.49125554
823.247	85.65860257
823.421	85.80058226
823.595	85.51171474
823.768	85.53097309
823.942	85.63074587
824.116	85.46737559
824.289	85.53856629
824.463	85.52593806
824.637	85.27129642
824.81	84.96775864
824.984	85.13409183
825.158	85.27077445
825.331	85.41234077
825.505	85.31776809
825.678	85.20196119
825.852	84.89121917
826.025	84.5672328
826.199	84.4721711
826.372	84.44176043
826.546	84.65721591
826.719	84.75567237
826.893	84.79761714
827.066	84.70693679
827.24	85.33014626
827.413	85.75941428
827.586	85.84388059
827.76	85.80473253
827.933	86.45425188
828.106	86.9518212
828.28	87.03181412
828.453	87.00745784
828.626	87.02567787
828.799	86.77340268
828.973	86.39845679
829.146	86.27236159
829.319	86.5463534
829.492	86.63096972
829.665	86.7879062
829.839	87.59984317
830.012	87.52275707
830.185	87.189592
830.358	86.78271026
830.531	86.54247899
830.704	86.65721627
830.877	86.55999786
831.05	86.27159711
831.223	85.92312351
831.396	86.04345557
831.569	85.83034968
831.742	85.68457208
831.915	85.32602118
832.088	85.80739057
832.261	86.23571452
832.434	85.87537092
832.607	85.84102506
832.779	85.71904377
832.952	85.90218846
833.125	85.85208535
833.298	86.17094521
833.471	86.10518975
833.643	86.32928418
833.816	86.5710642
833.989	87.07761911
834.162	88.35474722
834.334	88.41338907
834.507	87.99431657
834.68	88.95638165
834.852	89.39570272
835.025	90.69748978
835.198	89.52432298
835.37	89.43449184
835.543	90.05810584
835.715	89.55734561
835.888	89.51170863
836.061	89.49563239
836.233	90.96076127
836.406	91.38354449
836.578	91.91245959
836.751	93.99692583
836.923	93.19547273
837.095	91.78994208
837.268	90.60049543
837.44	90.60564765
837.613	91.03767812
837.785	90.77009104
837.957	90.38498777
838.13	91.93890842
838.302	91.37952864
838.474	93.01495738
838.647	90.67454733
838.819	91.5053784
838.991	93.22960719
839.163	93.70998943
839.336	93.59247831
839.508	93.58484995
839.68	96.54027915
839.852	96.85230579
840.024	97.32719115
840.196	96.79296712
840.368	93.71904151
840.541	95.50870999
840.713	95.76148047
840.885	97.94383573
841.057	98.53332165
841.229	97.25597805
841.401	95.36691446
841.573	95.42904238
841.745	94.31551164
841.917	94.28495569
842.089	92.12695373
842.261	94.84780739
842.432	95.72931921
842.604	93.95419847
842.776	92.5753897
842.948	93.70611925
843.12	94.74639695
843.292	91.32712239
843.464	90.61599354
843.635	93.20844015
843.807	92.55527568
843.979	96.41906011
844.151	94.88299794
844.322	95.16082175
844.494	94.55252918
844.666	94.34942354
844.837	96.41608014
845.009	95.083337
845.181	98.35186396
845.352	98.20441378
845.524	96.99969205
845.695	96.77657587
845.867	95.9038753
846.039	97.38969426
846.21	95.13406614
846.382	98.25147618
846.553	93.3787818
846.725	91.21227205
846.896	91.90377053
847.068	92.4646342
847.239	88.94519083
847.41	90.04456955
847.582	89.42956927
847.753	91.02690058
847.925	95.70455736
848.096	92.00515203
848.267	95.52824391
848.439	93.89319987
848.61	97.67796845
848.781	94.2819709
848.952	95.22834421
849.124	94.73709623
849.295	95.95510063
849.466	94.63025935
849.637	91.4855922
849.808	93.38903015
849.98	91.55249961
850.151	98.18229577
850.322	100.85257156
850.493	100.17139919
850.664	100.77116513
850.835	106.20733177
851.006	106.66937308
851.177	110.46199888
851.348	110.40055335
851.519	104.8117539
851.69	112.56162366
851.861	103.0837291
852.032	105.40328384
852.203	104.8163526
852.374	103.78812199
852.545	101.00438624
852.716	101.50133383
852.887	102.41770504
853.057	101.65898618
853.228	97.74325043
853.399	97.50164366
853.57	96.1120991
853.741	95.18422549
853.911	95.06931957
854.082	91.87426852
854.253	90.80048479
854.424	88.23662867
854.594	85.24671324
854.765	86.10214342
854.936	84.04304381
855.106	85.1863338
855.277	82.24352038
855.447	86.83189764
855.618	82.52168112
855.789	77.25432462
855.959	81.33560731
856.13	80.4136189
856.3	81.095492
856.471	80.47493404
856.641	81.88625227
856.812	87.34260736
856.982	89.19305976
857.153	87.32371535
857.323	87.96691713
857.493	86.66370551
857.664	93.6506114
857.834	90.39854101
858.004	88.56078744
858.175	89.43303116
858.345	85.34880025
858.515	84.26167601
858.686	83.83351097
858.856	86.99452936
859.026	90.98825317
859.196	92.36605305
859.367	98.9286789
859.537	96.8172043
859.707	103.2728881
859.877	99.47442401
860.047	98.86043454
860.217	93.56578222
860.387	90.95489301
860.558	89.97556469
860.728	92.22966961
860.898	89.78308154
861.068	93.12248695
861.238	90.06806748
861.408	92.39613115
861.578	95.55500218
861.748	96.6714815
861.918	92.03611965
862.088	94.35260822
862.257	100.6174867
862.427	95.94359668
862.597	92.08035542
862.767	91.05006646
862.937	90.30551926
863.107	91.62916846
863.277	89.83915023
863.446	89.49355143
863.616	86.91115266
863.786	91.31385531
863.956	92.00689698
864.125	89.99193898
864.295	95.19025086
864.465	99.85805536
864.634	96.76097561
864.804	96.73325958
864.974	99.27372388
865.143	99.71990664
865.313	99.37908713
865.482	104.75397829
865.652	104.31256679
865.822	104.53806801
865.991	105.07468058
866.161	103.47478661
866.33	104.96871773
866.5	105.46151578
866.669	101.11367343
866.838	98.50822752
867.008	103.71017761
867.177	104.72907527
867.347	100.98339793
867.516	106.27855914
867.685	105.85417775
867.855	103.75613333
868.024	101.66948806
868.193	103.23759791
868.363	105.09755669
868.532	102.42721212
868.701	99.77719144
868.87	99.05564521
869.04	96.63475831
869.209	97.85960457
869.378	92.03386569
869.547	92.82596318
869.716	93.17747209
869.885	97.00846541
870.055	92.349289
870.224	93.58824741
870.393	99.42877046
870.562	100.47691307
870.731	99.50421418
870.9	102.0308173
871.069	103.54286569
871.238	107.85790409
871.407	105.93510755
871.576	103.38887717
871.745	105.89465165
871.914	113.30253414
872.083	114.14223121
872.251	108.50717284
872.42	109.04068904
872.589	117.78333631
872.758	110.28042656
872.927	110.8937185
873.096	112.44439681
873.264	108.60830697
873.433	105.25683533
873.602	105.15248573
873.771	106.65537602
873.939	104.5086142
874.108	100.88259711
874.277	104.10406418
874.445	105.59229007
874.614	103.01567639
874.783	100.40949684
874.951	102.80968444
875.12	103.95263579
875.288	98.19969304
875.457	90.33573635
875.625	91.67454284
875.794	96.44868653
875.962	95.48417735
876.131	90.99499722
876.299	93.12354843
876.468	95.1169982
876.636	93.72597409
876.805	100.41711176
876.973	100.50832512
877.141	107.93433653
877.31	108.22551341
877.478	113.29538042
877.647	111.60928275
877.815	112.35025175
877.983	112.91207154
878.151	115.90788308
878.32	115.27835665
878.488	114.69232188
878.656	115.26914795
878.824	120.54875254
878.992	124.12553122
879.161	128.27673967
879.329	131.35687611
879.497	139.3623896
879.665	132.42430749
879.833	129.25755453
880.001	126.82811337
880.169	122.35115712
880.337	114.19135439
880.505	121.42616659
880.673	118.19886173
880.841	120.65878733
881.009	115.05465044
881.177	117.8284276
881.345	115.32073905
881.513	113.63482499
881.681	112.04645459
881.849	115.3501902
882.017	112.09997664
882.185	107.87556283
882.352	107.2313873
882.52	115.46873622
882.688	110.79311792
882.856	103.62029404
883.024	99.08630285
883.191	114.96646049
883.359	123.67198178
883.527	125.94544614
883.694	136.08885282
883.862	142.33221986
884.03	136.26228844
884.197	123.74455733
884.365	118.83148238
884.533	112.7644381
884.7	122.38874166
884.868	122.28266149
885.035	124.4973288
885.203	118.03346932
885.37	118.75642931
885.538	121.2528293
885.705	126.98500833
885.873	127.64815894
886.04	120.1839486
886.208	117.83101876
886.375	117.47528861
886.542	117.45952004
886.71	107.15705765
886.877	102.18968236
