Data from ws_Reflection_001.txt Node
Date: Tue Nov 21 14:18:40 AEST 2023
User: uqkchene_local
Spectrometer: USB4E02642
Trigger mode: 4
Integration Time (sec): 7.600000E-2
Scans to average: 10
Electric dark correction enabled: true
Nonlinearity correction enabled: false
Boxcar width: 10
XAxis mode: Wavelengths
Number of Pixels in Spectrum: 3648
>>>>>Begin Spectral Data<<<<<
179.217	-252.4137931
179.432	-109.61538462
179.647	-57.63612218
179.862	-72.52747253
180.077	-585.18518519
180.293	-307.46268657
180.508	-345.66473988
180.723	341.17647059
180.938	15160.00000009
181.153	351.61290323
181.368	806.4516129
181.583	253.54330709
181.798	-318.12080537
182.013	264.79481641
182.228	101.25223614
182.443	34.16856492
182.658	23.89550519
182.873	17.95444395
183.088	6.94498634
183.303	29.74245361
183.518	15.11526116
183.733	20.51392788
183.948	31.92962755
184.162	47.93230081
184.377	41.1599349
184.592	37.83591386
184.807	38.65767396
185.022	44.31953671
185.237	48.40118819
185.452	54.72549876
185.667	57.80534633
185.882	51.70510825
186.096	63.37313023
186.311	56.20881251
186.526	49.18481984
186.741	54.18871821
186.956	65.78032935
187.17	71.55575675
187.385	74.07914556
187.6	87.3097864
187.815	97.94633488
188.03	101.02615985
188.244	98.53103775
188.459	92.71713147
188.674	92.23538259
188.889	104.69607644
189.103	104.45074179
189.318	112.42355408
189.533	116.47237709
189.747	107.68682005
189.962	119.57886212
190.177	140.07625028
190.391	150.91108672
190.606	138.95685769
190.821	127.12796209
191.035	135.07310753
191.25	139.09465021
191.465	126.02898551
191.679	128.62542272
191.894	135.25856279
192.109	143.51827505
192.323	141.47859922
192.538	142.96047533
192.752	134.54872834
192.967	145.77447336
193.181	141.56397042
193.396	135.70629058
193.611	124.09556314
193.825	112.43088265
194.04	97.40654624
194.254	99.58574979
194.469	94.5159752
194.683	92.16602918
194.898	86.38026833
195.112	80.53598563
195.327	91.59429789
195.541	87.24913234
195.756	86.81013029
195.97	91.88124384
196.184	88.05328153
196.399	80.71580528
196.613	71.30275649
196.828	69.53354482
197.042	67.50319507
197.257	69.60629921
197.471	64.6268831
197.685	62.54937163
197.9	59.40385739
198.114	64.82794175
198.328	65.23183207
198.543	74.7826087
198.757	73.60782458
198.971	76.52650234
199.186	70.38479514
199.4	84.82490272
199.614	90.97731537
199.829	86.20420889
200.043	82.28864219
200.257	99.90093125
200.471	92.50607363
200.686	105.52223371
200.9	109.44361543
201.114	126.30337344
201.328	107.95429084
201.543	121.75868099
201.757	124.54668471
201.971	118.81234052
202.185	120.1264965
202.399	130.50951504
202.614	134.53660515
202.828	147.33226471
203.042	127.92017218
203.256	126.7812319
203.47	112.43744208
203.684	120.15322409
203.899	111.76073758
204.113	104.78196756
204.327	98.39321177
204.541	102.87090202
204.755	92.31619679
204.969	100.14172909
205.183	97.45495077
205.397	103.016151
205.611	108.80032369
205.825	110.81025641
206.039	114.96314007
206.253	114.17652411
206.467	114.65734809
206.681	103.74368797
206.895	96.94730702
207.109	89.12783751
207.323	82.23932398
207.537	83.88343262
207.751	77.98761142
207.965	81.61799157
208.179	74.19399474
208.393	86.82192163
208.607	90.22393822
208.821	99.26023344
209.035	97.10072063
209.249	97.98024473
209.463	98.87675027
209.677	90.29460147
209.891	86.90914446
210.104	75.25097042
210.318	76.48218746
210.532	66.6848642
210.746	67.81014343
210.96	72.80012823
211.174	73.67025684
211.387	80.88117061
211.601	77.31274131
211.815	82.51792829
212.029	74.72564579
212.243	75.76367295
212.456	73.10012063
212.67	85.20007658
212.884	66.61903911
213.098	68.52546917
213.311	66.06192073
213.525	72.99470484
213.739	60.13472137
213.953	63.42780027
214.166	73.20529554
214.38	75.66069118
214.594	83.51113607
214.807	94.22954978
215.021	105.81016299
215.235	96.03238866
215.448	94.24925161
215.662	101.80733462
215.876	94.87861067
216.089	104.99710592
216.303	98.15974198
216.516	100.95702105
216.73	105.8008658
216.944	121.59493199
217.157	118.05205709
217.371	118.26907435
217.584	109.26986925
217.798	107.17521555
218.011	102.84353551
218.225	102.56883151
218.439	96.19686801
218.652	91.10210923
218.866	93.25497529
219.079	85.49943602
219.293	83.0236005
219.506	76.74067186
219.719	82.57887517
219.933	81.97839682
220.146	76.31065969
220.36	72.70700314
220.573	70.66815371
220.787	70.16294378
221	62.92256183
221.214	66.41366224
221.427	56.04919945
221.64	51.05607376
221.854	51.80214309
222.067	50.70837584
222.28	51.16809117
222.494	51.68778618
222.707	53.03240449
222.92	56.09312477
223.134	57.07434053
223.347	57.96744631
223.56	68.29339997
223.774	67.83714242
223.987	70.99030361
224.2	64.09411765
224.414	67.44473917
224.627	81.13522538
224.84	91.95909364
225.053	94.54133635
225.267	87.68242849
225.48	100.83091787
225.693	104.84146573
225.906	141.21313834
226.119	146.25528738
226.333	168.37582355
226.546	185.67203418
226.759	154.45942071
226.972	158.59852138
227.185	123.89715832
227.398	122.82273873
227.612	134.53783713
227.825	132.9123516
228.038	119.07700563
228.251	100.70699136
228.464	96.24602333
228.677	96.67020148
228.89	96.38794652
229.103	85.6022653
229.316	86.1195542
229.529	84.37860082
229.743	91.80979931
229.956	98.9331836
230.169	85.60513978
230.382	70.50359712
230.595	72.6289639
230.808	73.48539881
231.021	75.29320789
231.234	87.41785543
231.447	98.07134323
231.66	101.53746561
231.872	104.96883348
232.085	93.07000529
232.298	96.41197249
232.511	94.75943481
232.724	106.61563696
232.937	110.28753994
233.15	134.89004761
233.363	137.14429615
233.576	142.4554356
233.789	132.12065393
234.002	162.09601506
234.214	155.91741785
234.427	157.05790297
234.64	164.31084106
234.853	182.24072147
235.066	171.58081705
235.279	134.64185572
235.491	138.56727465
235.704	116.52307103
235.917	113.72265413
236.13	116.29286376
236.342	112.15907091
236.555	126.48174017
236.768	109.35797986
236.981	113.47020531
237.193	116.77945514
237.406	115.95841693
237.619	101.36796537
237.832	99.47106908
238.044	102.44954552
238.257	99.92244455
238.47	90.1350278
238.682	91.40587768
238.895	84.99505021
239.108	85.81385219
239.32	98.62293053
239.533	110.69160803
239.746	131.47478187
239.958	140.124533
240.171	137.7515428
240.383	140.75872534
240.596	145.1604349
240.808	156.40387275
241.021	149.41876949
241.234	203.6199095
241.446	156.10845295
241.659	133.23967407
241.871	146.14769395
242.084	144.038516
242.296	143.63047955
242.509	144.87960545
242.721	176.47872708
242.934	161.614623
243.146	147.51667902
243.359	176.29790704
243.571	183.40486409
243.784	163.30704061
243.996	150.96376253
244.208	139.60373491
244.421	126.92381501
244.633	129.28260458
244.846	126.22206069
245.058	133.18039625
245.27	117.29757257
245.483	111.91143911
245.695	112.26765799
245.907	128.67238009
246.12	126.01741884
246.332	116.35729018
246.544	129.12423625
246.757	130.31688475
246.969	121.79312434
247.181	118.82809134
247.394	115.15671962
247.606	117.66292135
247.818	110.93068711
248.03	117.81618478
248.243	105.31594784
248.455	87.40544127
248.667	85.61085973
248.879	88.26331745
249.092	97.46815537
249.304	90.61993815
249.516	83.28821769
249.728	89.29377061
249.94	71.1427154
250.153	74.2197366
250.365	70.06711409
250.577	88.37564421
250.789	99.28832468
251.001	80.37918083
251.213	86.12252188
251.425	92.8586214
251.637	95.99480407
251.85	101.64943919
252.062	103.67598503
252.274	112.99923684
252.486	94.70100021
252.698	105.24484216
252.91	127.7584825
253.122	110.01850383
253.334	95.01287755
253.546	85.89623525
253.758	100.98264687
253.97	99.34354486
254.182	89.31935312
254.394	107.36163353
254.606	85.95476065
254.818	73.77023417
255.03	62.94108255
255.242	59.64146532
255.454	62.27763924
255.666	54.67954346
255.877	56.25513727
256.089	56.63104019
256.301	49.66094359
256.513	56.99295458
256.725	50.28397285
256.937	61.51715649
257.149	72.62569832
257.361	72.48542819
257.572	81.5667466
257.784	94.88119917
257.996	86.21498983
258.208	75.54339565
258.42	69.41919581
258.631	79.98229827
258.843	80.76748754
259.055	93.26533673
259.267	102.85452603
259.479	103.20133515
259.69	110.47650672
259.902	119.14820539
260.114	122.34225771
260.325	128.3438945
260.537	129.63538967
260.749	141.84586108
260.961	123.76085846
261.172	131.57076205
261.384	108.2439571
261.596	102.68445045
261.807	110.53715141
262.019	112.46474901
262.23	96.9400688
262.442	105.55453712
262.654	107.1647275
262.865	117.11331505
263.077	130.45779307
263.288	131.53262519
263.5	113.8283915
263.712	102.46012436
263.923	92.30417904
264.135	90.73671736
264.346	81.26115407
264.558	64.04822088
264.769	64.89865505
264.981	61.17312766
265.192	67.81730162
265.404	74.68589083
265.615	72.52425407
265.827	71.84028337
266.038	71.45149526
266.25	70.41696113
266.461	62.91813094
266.673	71.41124141
266.884	74.09160518
267.095	84.84425199
267.307	82.89595147
267.518	78.46247712
267.73	84.44865569
267.941	83.9876161
268.152	88.06058455
268.364	94.29141717
268.575	91.44763175
268.786	86.54725139
268.998	94.71762097
269.209	91.55467883
269.42	88.39711456
269.632	85.76863631
269.843	85.97118156
270.054	85.76955628
270.265	97.72922548
270.477	96.48228063
270.688	96.75099525
270.899	95.54991314
271.11	87.30924742
271.322	80.8343172
271.533	77.61535528
271.744	84.78000798
271.955	87.0972203
272.166	77.51122514
272.378	83.53852012
272.589	88.22971692
272.8	86.19967992
273.011	83.98585193
273.222	86.25639745
273.433	87.87047917
273.644	91.39599629
273.856	105.10476726
274.067	102.14275578
274.278	97.4521285
274.489	102.85248574
274.7	106.98003181
274.911	110.32778784
275.122	106.19816016
275.333	102.14519108
275.544	108.44560336
275.755	114.16434744
275.966	108.09814211
276.177	100.15843295
276.388	94.88723911
276.599	98.89990493
276.81	92.20952664
277.021	83.3260266
277.232	99.12294199
277.443	100.04443786
277.654	105.09015478
277.865	105.86746797
278.076	100.11522634
278.287	77.84574071
278.497	81.68647241
278.708	86.04469448
278.919	82.6306914
279.13	75.27978467
279.341	64.3781222
279.552	60.34270048
279.763	65.16722652
279.973	65.8733791
280.184	55.25159461
280.395	59.84539705
280.606	62.36938185
280.817	66.3317845
281.027	63.55402475
281.238	69.64985463
281.449	76.83460433
281.66	67.4505099
281.87	61.15306245
282.081	62.03220948
282.292	61.18341901
282.503	62.50635227
282.713	68.49369477
282.924	69.43732802
283.135	70.81786156
283.345	71.19758838
283.556	71.84466019
283.767	76.12068145
283.977	80.80827613
284.188	81.65976702
284.399	80.96771226
284.609	85.35105461
284.82	85.64837066
285.03	89.47082473
285.241	86.67149209
285.451	84.33126381
285.662	86.2924409
285.873	82.87292818
286.083	81.40963466
286.294	82.48444585
286.504	86.34559691
286.715	88.61853326
286.925	92.35072358
287.136	92.08440054
287.346	88.50289495
287.557	92.89717488
287.767	93.08580269
287.978	88.96543532
288.188	90.10586851
288.399	86.36544322
288.609	88.16221619
288.819	89.14964508
289.03	86.29066629
289.24	86.90620374
289.451	86.8981754
289.661	84.92285263
289.871	93.98805574
290.082	82.93697206
290.292	85.77381641
290.502	90.89630931
290.713	99.43059598
290.923	91.5451895
291.133	87.82287823
291.344	79.35848621
291.554	79.76532268
291.764	75.19010182
291.974	65.24594226
292.185	62.01386441
292.395	66.13290633
292.605	70.09401404
292.815	68.36151603
293.026	71.37869009
293.236	68.42048049
293.446	70.28285415
293.656	66.44526153
293.866	62.54149515
294.077	74.11907655
294.287	74.80486244
294.497	76.58032479
294.707	73.00014571
294.917	72.11473414
295.127	66.45328081
295.337	64.98472978
295.548	61.58245949
295.758	73.7251849
295.968	76.28035737
296.178	82.27963131
296.388	97.32204801
296.598	113.4798408
296.808	123.22441792
297.018	129.36427851
297.228	126.53061224
297.438	129.03828198
297.648	126.78535707
297.858	136.78537055
298.068	134.67725514
298.278	120.63074901
298.488	109.6215402
298.698	99.22346851
298.908	95.91619857
299.118	86.81784931
299.328	91.1239108
299.538	98.83824844
299.748	104.69181233
299.957	106.99486453
300.167	110.25507548
300.377	106.20037168
300.587	98.82390849
300.797	89.89261974
301.007	75.38958304
301.217	66.75942674
301.426	61.23353441
301.636	60.33963628
301.846	48.374545
302.056	55.37043602
302.266	54.21506613
302.475	57.85199588
302.685	63.26740597
302.895	68.6159428
303.105	70.71144818
303.314	72.92980808
303.524	84.52905242
303.734	85.22901295
303.944	88.18670513
304.153	86.09304038
304.363	90.33480733
304.573	83.32694519
304.782	83.44404061
304.992	91.99013371
305.202	93.78982881
305.411	104.40686992
305.621	109.54916578
305.831	116.34225996
306.04	129.59765911
306.25	134.78324332
306.459	133.91355657
306.669	125.52967693
306.878	123.61692908
307.088	123.04576752
307.298	115.88811586
307.507	107.90467509
307.717	107.33004178
307.926	99.33465624
308.136	96.93338033
308.345	89.08899544
308.555	85.1757401
308.764	78.95704858
308.974	89.47802522
309.183	87.05027256
309.392	85.92261555
309.602	82.82412175
309.811	81.8376792
310.021	81.03426945
310.23	73.60694027
310.44	66.50295792
310.649	67.69916696
310.858	79.16816925
311.068	82.98004215
311.277	81.82168056
311.486	74.53758363
311.696	78.47703781
311.905	84.08384043
312.114	78.01040139
312.324	79.22936296
312.533	66.10975083
312.742	71.88761022
312.952	75.43398211
313.161	75.31007111
313.37	67.13307985
313.579	70.52965143
313.789	66.013772
313.998	61.90104573
314.207	60.2530064
314.416	54.37447523
314.625	57.97803016
314.835	60.8790808
315.044	63.37302293
315.253	43.98231538
315.462	48.41636161
315.671	62.70102023
315.88	60.18966518
316.09	63.41261634
316.299	47.95588515
316.508	54.94238933
316.717	55.76274994
316.926	78.38441242
317.135	86.16080609
317.344	87.55792003
317.553	96.75870348
317.762	101.42050317
317.971	98.36813476
318.18	100.68003487
318.389	100.12308774
318.598	93.28958162
318.807	94.5171248
319.016	96.44133644
319.225	100.30298198
319.434	90.30776298
319.643	107.21878471
319.852	103.82176521
320.061	92.12585317
320.27	108.9328648
320.479	97.38053659
320.688	114.15182755
320.897	109.87341772
321.105	106.15034169
321.314	108.22577538
321.523	98.24096841
321.732	94.5497076
321.941	89.63077603
322.15	77.07594038
322.359	83.14606742
322.567	85.18246387
322.776	90.6488109
322.985	100.55195584
323.194	88.4820394
323.403	89.71227489
323.611	101.37210731
323.82	113.43945194
324.029	106.48051677
324.237	92.99537592
324.446	98.28066154
324.655	91.51815624
324.864	103.11096323
325.072	98.33103659
325.281	105.2744887
325.49	102.66732122
325.698	91.97176162
325.907	94.30087284
326.116	93.63734401
326.324	94.77113536
326.533	90.38191738
326.741	88.714583
326.95	88.73709293
327.159	89.21429696
327.367	99.28807085
327.576	106.04213826
327.784	120.14611872
327.993	105.49258936
328.201	102.46764452
328.41	95.04354711
328.618	105.69564451
328.827	89.64109542
329.035	81.74045221
329.244	80.71440275
329.452	89.84605816
329.661	77.52011358
329.869	84.25340638
330.078	90.55173382
330.286	90.31137244
330.495	99.98626939
330.703	92.8306041
330.911	96.76523671
331.12	95.76379974
331.328	90.53749171
331.537	89.26239756
331.745	84.07589599
331.953	78.62645254
332.162	70.81562714
332.37	75.12530431
332.578	75.8485822
332.787	72.2326184
332.995	87.44119743
333.203	101.09924137
333.411	112.24772762
333.62	106.51314659
333.828	101.07024713
334.036	97.69941226
334.244	111.1964663
334.453	114.32448149
334.661	112.54223812
334.869	104.05778628
335.077	114.86398259
335.285	131.37697517
335.494	129.54597308
335.702	143.85609324
335.91	142.34519104
336.118	119.78868589
336.326	145.587836
336.534	138.36858006
336.742	124.72870007
336.951	139.19474117
337.159	148.36546521
337.367	151.7480315
337.575	171.62910972
337.783	160.72619489
337.991	173.01940821
338.199	181.73987941
338.407	246.03234299
338.615	215.34212949
338.823	218.72546059
339.031	208.30892144
339.239	194.34188444
339.447	201.84690158
339.655	165.55757209
339.863	177.52713343
340.071	170.96700796
340.279	172.48724207
340.487	189.01921637
340.695	143.83641675
340.903	136.39143731
341.11	134.33687213
341.318	127.32548767
341.526	136.38978176
341.734	132.67059815
341.942	117.64886906
342.15	122.59486695
342.358	113.61382179
342.565	93.37070778
342.773	92.05009146
342.981	83.76434583
343.189	80.83949872
343.397	75.89760103
343.604	69.99837741
343.812	63.96581738
344.02	78.69456067
344.228	77.54970099
344.435	90.2179599
344.643	96.80280909
344.851	93.63795018
345.058	109.14711766
345.266	115.2992383
345.474	107.62391643
345.681	98.72857933
345.889	86.05424322
346.097	75.27012631
346.304	83.35668691
346.512	78.36864101
346.72	77.12521351
346.927	84.31736955
347.135	88.34855938
347.342	85.34095549
347.55	86.47322073
347.758	95.22010751
347.965	99.87052223
348.173	100.09978617
348.38	89.62953127
348.588	87.42450678
348.795	89.79351032
349.003	83.7002584
349.21	84.02501421
349.418	82.49562682
349.625	80.9249912
349.833	89.24179104
350.04	93.62167416
350.247	99.37285528
350.455	102.97769741
350.662	94.08572979
350.87	94.50252951
351.077	97.98977043
351.284	99.42696761
351.492	91.93860148
351.699	95.69786535
351.906	96.93994778
352.114	91.43497301
352.321	97.50828788
352.528	93.97240378
352.736	97.53304882
352.943	94.89721382
353.15	96.5632299
353.358	93.68867353
353.565	102.09481808
353.772	105.0321329
353.979	101.43811573
354.187	96.1817533
354.394	93.87358971
354.601	91.82327318
354.808	89.65517241
355.015	95.13292434
355.223	93.63861064
355.43	94.47980257
355.637	91.63608756
355.844	96.44044833
356.051	92.46321177
356.258	94.62337321
356.465	93.49686981
356.673	85.1140891
356.88	88.72298625
357.087	94.73393227
357.294	96.52768814
357.501	82.75292173
357.708	100.18649758
357.915	92.33270794
358.122	100.284126
358.329	100.71549369
358.536	99.38925589
358.743	109.97704874
358.95	108.17728681
359.157	111.09287375
359.364	107.07254278
359.571	111.30905042
359.778	107.03610411
359.985	112.52963706
360.192	104.11819021
360.399	98.42095486
360.606	86.68453977
360.812	87.96859666
361.019	93.9643072
361.226	118.06890087
361.433	102.29386237
361.64	100.26171782
361.847	118.74815471
362.054	88.6168273
362.26	87.86901513
362.467	74.32752313
362.674	81.27536232
362.881	82.55420728
363.088	75.2432789
363.294	76.55362648
363.501	78.61857252
363.708	87.10302669
363.915	82.90438533
364.121	87.27219711
364.328	88.69322152
364.535	99.12186104
364.741	106.87830688
364.948	110.26913246
365.155	109.28788098
365.361	111.73202096
365.568	95.39908864
365.775	105.47838302
365.981	104.12749004
366.188	106.91229728
366.395	111.34964483
366.601	115.11610026
366.808	105.58461279
367.014	109.43936951
367.221	112.79253915
367.427	119.65197655
367.634	118.17331087
367.84	106.45335251
368.047	107.60688506
368.254	115.77693987
368.46	107.76909
368.667	111.98698246
368.873	109.81646742
369.079	114.72120394
369.286	109.17067057
369.492	108.29866433
369.699	99.90217179
369.905	100.12484395
370.112	82.49694002
370.318	85.40751586
370.524	79.89927418
370.731	86.36570907
370.937	80.76031525
371.144	87.04737369
371.35	94.10577893
371.556	94.07535614
371.763	88.79126396
371.969	81.92859772
372.175	90.21378303
372.381	89.05072186
372.588	84.26106137
372.794	90.47418039
373	89.67482835
373.206	79.1497727
373.413	83.14606742
373.619	78.27848101
373.825	77.17163658
374.031	78.69569351
374.238	76.66763201
374.444	83.29130475
374.65	85.70348672
374.856	87.7653574
375.062	78.11455075
375.268	80.28332805
375.475	86.33519921
375.681	78.95449339
375.887	78.29685288
376.093	83.62877998
376.299	93.8595473
376.505	98.54734387
376.711	95.72735498
376.917	97.77388937
377.123	97.63702324
377.329	89.19645524
377.535	91.72268486
377.741	89.80225696
377.947	97.98485979
378.153	101.89303817
378.359	108.85705323
378.565	108.70361446
378.771	101.08239883
378.977	99.53006617
379.183	96.43821301
379.389	98.87769313
379.595	99.86562327
379.801	98.26244202
380.007	99.95959596
380.213	95.99174538
380.418	95.58058252
380.624	94.73521453
380.83	86.32601928
381.036	90.17223911
381.242	86.05054696
381.448	84.65930155
381.653	96.35799197
381.859	97.11026045
382.065	94.92273731
382.271	93.43075757
382.476	88.63315163
382.682	83.57637743
382.888	84.29083795
383.094	88.86084357
383.299	90.47649504
383.505	93.99836262
383.711	96.78873239
383.916	97.61442615
384.122	95.88274646
384.328	97.57152568
384.533	101.93977462
384.739	98.9861103
384.945	99.30774072
385.15	105.03396621
385.356	101.7007368
385.562	108.23516275
385.767	107.57339917
385.973	100.76518661
386.178	99.89495273
386.384	99.99502562
386.589	98.53876402
386.795	106.69801411
387	109.3410717
387.206	110.34094975
387.411	110.40442447
387.617	105.20677508
387.822	101.58624935
388.028	97.25536451
388.233	96.04681288
388.439	94.89063944
388.644	95.07111017
388.85	93.68909707
389.055	95.41696697
389.26	92.80335761
389.466	90.07106436
389.671	88.71518913
389.877	87.15571522
390.082	86.80462241
390.287	87.28149027
390.493	87.57609403
390.698	87.77218162
390.903	89.72095993
391.109	88.08754041
391.314	89.69565673
391.519	90.07973815
391.724	90.77140202
391.93	97.52582443
392.135	99.65877511
392.34	97.65313551
392.545	99.79455054
392.751	100.52331896
392.956	100.54054054
393.161	98.62890402
393.366	97.21232214
393.571	98.42017667
393.776	96.58359684
393.982	98.09568568
394.187	96.93459964
394.392	97.19753229
394.597	96.92479881
394.802	98.35062589
395.007	98.3991329
395.212	98.41671944
395.417	98.05557067
395.622	97.85486817
395.827	98.11201678
396.032	98.14228257
396.237	97.70969768
396.442	97.96256785
396.647	98.37455782
396.852	98.26239186
397.057	98.48582599
397.262	98.45767025
397.467	98.70029678
397.672	98.7620385
397.877	98.71313305
398.082	98.95299743
398.287	98.91986055
398.492	99.19336697
398.697	99.31104199
398.902	99.47169624
399.107	99.16375074
399.311	99.28611606
399.516	99.30121412
399.721	99.47347603
399.926	99.63356461
400.131	99.69439285
400.336	99.66067127
400.54	99.67947894
400.745	99.61358488
400.95	99.692555
401.155	99.72352279
401.359	99.87629063
401.564	99.94457062
401.769	99.93770852
401.974	100.02010352
402.178	100.05936994
402.383	100.05649984
402.588	100.16730694
402.792	100.09988677
402.997	100.05442789
403.202	100.09826748
403.406	100.37983181
403.611	100.17418858
403.815	100.24735483
404.02	100.18709424
404.225	99.92089712
404.429	99.65505308
404.634	99.61638646
404.838	99.83090955
405.043	99.87123858
405.247	99.88172942
405.452	100.00640772
405.656	99.81035249
405.861	99.76583079
406.065	99.87112605
406.27	99.82922187
406.474	99.95782845
406.679	100.17143823
406.883	100.14063133
407.088	99.98353714
407.292	100.11672475
407.497	100.09743715
407.701	99.74684124
407.905	100.01963272
408.11	99.97324974
408.314	99.72020008
408.518	99.81380028
408.723	100.13455023
408.927	100.17805142
409.131	99.82758562
409.336	100.04311025
409.54	99.9665803
409.744	99.87896892
409.949	99.89430806
410.153	99.81203802
410.357	99.61464279
410.561	99.58313221
410.766	99.54583575
410.97	99.0994979
411.174	99.18973078
411.378	99.2639142
411.582	98.87128621
411.787	98.83158007
411.991	99.04911141
412.195	99.02806156
412.399	98.96352122
412.603	99.0390916
412.807	98.90915496
413.011	98.90153835
413.215	99.11362336
413.419	99.25940386
413.624	99.38664089
413.828	99.5931038
414.032	99.40783474
414.236	99.5228415
414.44	99.75874961
414.644	99.95295003
414.848	99.8882084
415.052	99.80330175
415.256	100.05165233
415.46	100.04816492
415.664	100.0587633
415.868	100.44658503
416.072	100.39987297
416.275	100.50675392
416.479	100.70921045
416.683	100.72720003
416.887	100.963719
417.091	101.24550447
417.295	101.16055191
417.499	100.92159189
417.703	100.62719174
417.906	100.17290789
418.11	100.07301061
418.314	100.28053964
418.518	100.14350833
418.722	100.06906333
418.925	99.86431251
419.129	100.04170453
419.333	100.18159394
419.537	100.05666088
419.74	99.95848571
419.944	99.94432348
420.148	99.76358363
420.352	99.81858383
420.555	99.71335619
420.759	99.46962571
420.963	99.53492469
421.166	99.44745236
421.37	99.11363729
421.573	98.91721921
421.777	98.93077332
421.981	99.13810346
422.184	99.10893088
422.388	99.1011937
422.591	98.97272499
422.795	99.17547583
422.999	99.19147126
423.202	99.17909062
423.406	99.01137352
423.609	98.90914981
423.813	98.77845107
424.016	98.81561135
424.22	99.02309819
424.423	98.94452775
424.627	98.90897643
424.83	99.07797494
425.033	98.98578093
425.237	98.91266548
425.44	98.82235479
425.644	99.18802454
425.847	99.20563977
426.05	99.21740046
426.254	99.23901646
426.457	99.37262989
426.66	99.35574624
426.864	99.3174143
427.067	99.21223558
427.27	99.33816147
427.474	99.36399953
427.677	99.43935146
427.88	99.39173137
428.084	99.46550145
428.287	99.46663938
428.49	99.41792998
428.693	99.47034331
428.896	99.49390218
429.1	99.45508893
429.303	99.51580112
429.506	99.53552053
429.709	99.53948119
429.912	99.53269095
430.116	99.57165336
430.319	99.6136242
430.522	99.63444767
430.725	99.5708806
430.928	99.59864441
431.131	99.69201218
431.334	99.71588096
431.537	99.65428512
431.74	99.67087448
431.943	99.60270261
432.146	99.65996092
432.349	99.64163618
432.552	99.65767558
432.755	99.58811763
432.958	99.55521209
433.161	99.6040438
433.364	99.67629607
433.567	99.68510078
433.77	99.69924638
433.973	99.74934883
434.176	99.63431147
434.379	99.62382245
434.582	99.55716062
434.785	99.5268416
434.988	99.54794338
435.19	99.53370168
435.393	99.45250683
435.596	99.4775196
435.799	99.46304263
436.002	99.50505899
436.205	99.58436305
436.407	99.58843763
436.61	99.65157544
436.813	99.61181411
437.016	99.71661199
437.218	99.75865766
437.421	99.66427984
437.624	99.57955353
437.827	99.55772478
438.029	99.60888495
438.232	99.60131758
438.435	99.72575242
438.637	99.80281067
438.84	99.86277469
439.043	99.90485794
439.245	99.97885098
439.448	100.00589187
439.65	100.03195357
439.853	100.05341508
440.056	100.09473228
440.258	100.06785916
440.461	100.11007579
440.663	100.17793996
440.866	100.14680722
441.068	100.20836373
441.271	100.26921103
441.473	100.34332481
441.676	100.44163051
441.878	100.53679624
442.081	100.4862739
442.283	100.47199785
442.486	100.51428503
442.688	100.52409104
442.89	100.51099296
443.093	100.47686408
443.295	100.50449669
443.498	100.51092263
443.7	100.4836577
443.902	100.5375603
444.105	100.57386039
444.307	100.63358538
444.509	100.61411117
444.712	100.67208966
444.914	100.60140275
445.116	100.66365131
445.319	100.65260605
445.521	100.74701588
445.723	100.60091014
445.925	100.69397863
446.128	100.65358382
446.33	100.73941703
446.532	100.70661731
446.734	100.62955714
446.936	100.60834797
447.139	100.51738189
447.341	100.63872933
447.543	100.65078307
447.745	100.66885852
447.947	100.68991765
448.149	100.56738864
448.351	100.53867265
448.553	100.45139164
448.755	100.4450343
448.958	100.29433111
449.16	100.26741902
449.362	100.18128702
449.564	100.17919949
449.766	100.10258116
449.968	100.22646087
450.17	100.07960025
450.372	100.03152627
450.574	99.98017892
450.776	100.00154201
450.978	100.0789739
451.179	100.07730799
451.381	100.09883918
451.583	100.06626687
451.785	100.03704136
451.987	100.0403371
452.189	100.06437606
452.391	100.11073075
452.593	100.06367125
452.795	100.0873529
452.996	100.06381846
453.198	100.12819621
453.4	100.05558655
453.602	100.09596241
453.804	100.08346855
454.005	100.03317695
454.207	100.00405713
454.409	99.89833073
454.611	99.88024851
454.812	99.92318748
455.014	99.8381447
455.216	99.79280797
455.417	99.79989791
455.619	99.80896955
455.821	99.92127376
456.022	99.97980333
456.224	99.92165165
456.426	99.85577996
456.627	99.94332794
456.829	99.93288092
457.031	99.91618314
457.232	99.86571486
457.434	99.76031969
457.635	99.8391459
457.837	99.77870636
458.038	99.79482585
458.24	99.76454731
458.441	99.71585073
458.643	99.79489181
458.844	99.84080605
459.046	99.90796524
459.247	99.89923428
459.449	99.90843361
459.65	99.85298092
459.852	99.86713606
460.053	99.80324885
460.254	99.68917154
460.456	99.70522312
460.657	99.78570779
460.859	99.72315
461.06	99.73894495
461.261	99.76987029
461.463	99.89837132
461.664	99.93101399
461.865	99.89595421
462.066	99.92494697
462.268	99.91271874
462.469	99.95895702
462.67	99.93701621
462.872	99.95009533
463.073	99.95854811
463.274	99.81467633
463.475	99.7137325
463.676	99.79194646
463.878	99.84986841
464.079	99.78433496
464.28	99.78983405
464.481	99.83630067
464.682	99.85105
464.883	99.88658836
465.085	99.94535733
465.286	99.95252049
465.487	99.93559801
465.688	99.91359901
465.889	99.9677475
466.09	99.8908817
466.291	99.91280204
466.492	99.93731653
466.693	99.90100694
466.894	99.95124763
467.095	99.95505875
467.296	99.90349725
467.497	99.84147118
467.698	99.96061125
467.899	99.82306748
468.1	99.69939151
468.301	99.82246095
468.502	99.70655665
468.703	99.73876373
468.903	99.649869
469.104	99.58175876
469.305	99.55265984
469.506	99.54331193
469.707	99.46106886
469.908	99.41036785
470.109	99.41843623
470.309	99.54996291
470.51	99.46426055
470.711	99.47007699
470.912	99.45482131
471.112	99.37034337
471.313	99.45172171
471.514	99.52457688
471.715	99.58607943
471.915	99.58707476
472.116	99.65667969
472.317	99.68594575
472.517	99.63458856
472.718	99.67409581
472.919	99.65442347
473.119	99.72994219
473.32	99.67370912
473.521	99.69520653
473.721	99.73890339
473.922	99.7500516
474.122	99.77545691
474.323	99.77369899
474.523	99.79147104
474.724	99.75577488
474.925	99.6958306
475.125	99.69994877
475.326	99.76422565
475.526	99.66194613
475.727	99.63712153
475.927	99.56579607
476.127	99.6240594
476.328	99.63173671
476.528	99.67470951
476.729	99.60535315
476.929	99.61066099
477.13	99.4677664
477.33	99.42914073
477.53	99.48593794
477.731	99.48116373
477.931	99.52243612
478.131	99.47020877
478.332	99.42037911
478.532	99.44639111
478.732	99.41530399
478.933	99.44827861
479.133	99.47908765
479.333	99.52042737
479.533	99.50656778
479.734	99.55503512
479.934	99.53122446
480.134	99.58920474
480.334	99.56455492
480.534	99.52472911
480.735	99.56543914
480.935	99.58906766
481.135	99.61320909
481.335	99.66614341
481.535	99.67602625
481.735	99.64976534
481.935	99.60651052
482.136	99.53217794
482.336	99.56730605
482.536	99.57430637
482.736	99.53302081
482.936	99.51676386
483.136	99.50968254
483.336	99.48204928
483.536	99.47914539
483.736	99.46496604
483.936	99.43278247
484.136	99.40713083
484.336	99.38058523
484.536	99.36679776
484.736	99.37708551
484.936	99.32865291
485.135	99.31054993
485.335	99.29726266
485.535	99.30154097
485.735	99.31226473
485.935	99.30535575
486.135	99.36434476
486.335	99.40683282
486.534	99.40769449
486.734	99.42926393
486.934	99.41325608
487.134	99.39315915
487.334	99.36550009
487.533	99.35081665
487.733	99.34409641
487.933	99.37060586
488.133	99.35990109
488.332	99.38927108
488.532	99.41547817
488.732	99.35587554
488.931	99.38516827
489.131	99.41017193
489.331	99.41648833
489.53	99.42400249
489.73	99.44233949
489.93	99.40765536
490.129	99.41788444
490.329	99.37079432
490.528	99.36619567
490.728	99.41449395
490.928	99.40010096
491.127	99.43677604
491.327	99.47777499
491.526	99.51169161
491.726	99.52376654
491.925	99.48525689
492.125	99.430955
492.324	99.52653783
492.524	99.53860939
492.723	99.55001874
492.922	99.60750287
493.122	99.62334264
493.321	99.60856056
493.521	99.65881348
493.72	99.6245902
493.919	99.62285749
494.119	99.65021384
494.318	99.64891487
494.517	99.64975423
494.717	99.61291878
494.916	99.5633642
495.115	99.57664473
495.315	99.61762535
495.514	99.64320537
495.713	99.66491943
495.912	99.69478672
496.112	99.71776382
496.311	99.73468485
496.51	99.66574577
496.709	99.66859172
496.908	99.62016946
497.108	99.6906373
497.307	99.66823441
497.506	99.67826873
497.705	99.59489913
497.904	99.60180121
498.103	99.56533438
498.302	99.55382271
498.501	99.57490869
498.701	99.57770418
498.9	99.61560021
499.099	99.5700863
499.298	99.61370497
499.497	99.56280989
499.696	99.47037891
499.895	99.43924017
500.094	99.44296342
500.293	99.37370486
500.492	99.47096623
500.691	99.48044285
500.89	99.5120428
501.088	99.54196825
501.287	99.54096337
501.486	99.4904965
501.685	99.52308041
501.884	99.6108957
502.083	99.66385524
502.282	99.57420856
502.481	99.55947695
502.679	99.57202079
502.878	99.67563438
503.077	99.72902381
503.276	99.82767532
503.475	99.81329337
503.673	99.80056391
503.872	99.87656812
504.071	100.01219157
504.27	100.09286319
504.468	100.30861749
504.667	100.2007864
504.866	100.13181186
505.064	100.1123523
505.263	100.16125932
505.462	100.23906054
505.66	100.27459289
505.859	100.3057999
506.058	100.4426435
506.256	100.52083418
506.455	100.65841506
506.653	100.78195311
506.852	100.90269296
507.05	100.839746
507.249	100.7882321
507.448	100.88739273
507.646	100.77986536
507.845	100.71803354
508.043	100.84961912
508.242	100.79363095
508.44	100.65418101
508.638	100.77363266
508.837	101.09164108
509.035	101.23570522
509.234	101.37662482
509.432	101.45842171
509.631	101.43132089
509.829	101.57594748
510.027	101.4564335
510.226	101.36804606
510.424	101.37322011
510.622	101.53238867
510.821	101.66991516
511.019	101.70015597
511.217	101.74080705
511.415	101.95337992
511.614	101.78727104
511.812	101.80600175
512.01	101.86810863
512.208	102.03978087
512.407	102.05163354
512.605	102.26897201
512.803	102.26185816
513.001	102.09310674
513.199	101.98572674
513.398	102.11613432
513.596	102.11224477
513.794	102.32148954
513.992	102.37451037
514.19	102.45331712
514.388	102.57652166
514.586	102.48808599
514.784	102.66816547
514.982	102.56388062
515.18	102.41959137
515.378	102.46488856
515.576	102.36885206
515.774	102.51214335
515.972	102.75820198
516.17	102.92539185
516.368	102.80007933
516.566	102.74556305
516.764	102.76436943
516.962	102.73224325
517.16	102.88323602
517.358	103.13393251
517.556	102.93344862
517.754	102.59348999
517.952	102.50536314
518.149	102.40680434
518.347	102.40294052
518.545	102.3707659
518.743	102.27414006
518.941	102.2492432
519.138	102.43075098
519.336	102.54467084
519.534	102.41317802
519.732	102.26168462
519.929	102.12874918
520.127	102.09114033
520.325	101.91713506
520.523	101.90107939
520.72	102.13616957
520.918	102.01067242
521.116	102.04858042
521.313	102.0122243
521.511	101.76436867
521.709	101.80501014
521.906	102.0912481
522.104	102.05052967
522.301	102.10954602
522.499	102.13863587
522.696	101.93798363
522.894	101.78815783
523.092	101.85813995
523.289	101.81922672
523.487	101.66395909
523.684	101.79511537
523.882	101.71698472
524.079	101.89881468
524.276	101.82505972
524.474	102.0685556
524.671	101.91879
524.869	101.76036363
525.066	101.86832756
525.264	101.80325679
525.461	101.69609363
525.658	101.68365719
525.856	101.37825135
526.053	101.50258746
526.25	101.6219536
526.448	101.67963132
526.645	101.63722587
526.842	101.54315586
527.039	101.66904819
527.237	101.4581834
527.434	101.31869798
527.631	101.14378386
527.828	101.03886949
528.026	100.97925364
528.223	100.82291031
528.42	100.80155643
528.617	100.6292157
528.814	100.54708201
529.012	100.59314087
529.209	100.53412634
529.406	100.52523858
529.603	100.40730262
529.8	100.35989474
529.997	100.30802574
530.194	100.23305652
530.391	100.06435217
530.588	100.00509264
530.785	99.90872207
530.982	99.76526367
531.179	99.6697066
531.376	99.63155566
531.573	99.64930518
531.77	99.67199612
531.967	99.61671235
532.164	99.58709614
532.361	99.55474797
532.558	99.52821618
532.755	99.45778153
532.952	99.49997674
533.149	99.48165069
533.346	99.52129476
533.543	99.48838562
533.739	99.46838046
533.936	99.48100349
534.133	99.53683117
534.33	99.54429441
534.527	99.54793503
534.723	99.52428861
534.92	99.52649924
535.117	99.55786475
535.314	99.57390734
535.51	99.56056261
535.707	99.53714989
535.904	99.51751912
536.1	99.49965843
536.297	99.5039434
536.494	99.5079903
536.69	99.51547897
536.887	99.53345754
537.084	99.51677036
537.28	99.50270479
537.477	99.50806308
537.674	99.51595335
537.87	99.51081839
538.067	99.50359227
538.263	99.4783339
538.46	99.46598345
538.656	99.45625236
538.853	99.45101706
539.049	99.45195815
539.246	99.43797096
539.442	99.43730215
539.639	99.44140991
539.835	99.43719808
540.032	99.45921021
540.228	99.47383339
540.424	99.46597646
540.621	99.46220755
540.817	99.46347786
541.014	99.46508438
541.21	99.47071511
541.406	99.47872754
541.603	99.45288204
541.799	99.44698676
541.995	99.45782403
542.191	99.44889138
542.388	99.44341599
542.584	99.43226707
542.78	99.42309967
542.976	99.43561932
543.173	99.43482355
543.369	99.44867731
543.565	99.4423297
543.761	99.43682169
543.957	99.4302692
544.154	99.41340897
544.35	99.41382426
544.546	99.42434628
544.742	99.42518193
544.938	99.41558461
545.134	99.41983604
545.33	99.41215081
545.526	99.42159592
545.722	99.44554753
545.919	99.46514443
546.115	99.44136262
546.311	99.44509127
546.507	99.45524298
546.703	99.45094598
546.899	99.45653127
547.095	99.44118269
547.29	99.43095913
547.486	99.41425471
547.682	99.40916091
547.878	99.41431182
548.074	99.44571353
548.27	99.43776458
548.466	99.44597809
548.662	99.45138866
548.858	99.44303453
549.053	99.45241755
549.249	99.44654984
549.445	99.44026868
549.641	99.40955289
549.837	99.38668708
550.032	99.34837143
550.228	99.37962235
550.424	99.38228695
550.62	99.36799541
550.815	99.40778428
551.011	99.4368317
551.207	99.46101745
551.402	99.46792492
551.598	99.49279133
551.794	99.53203363
551.989	99.5475162
552.185	99.52247745
552.381	99.53985512
552.576	99.49290099
552.772	99.49291504
552.967	99.50691854
553.163	99.4736508
553.359	99.46330953
553.554	99.48814566
553.75	99.510651
553.945	99.49437273
554.141	99.48451936
554.336	99.51502503
554.532	99.52111067
554.727	99.53268593
554.922	99.47381744
555.118	99.50324177
555.313	99.47817312
555.509	99.51474227
555.704	99.49332018
555.899	99.41644091
556.095	99.40967828
556.29	99.4421311
556.486	99.45764328
556.681	99.57776051
556.876	99.51682289
557.071	99.55091794
557.267	99.58911673
557.462	99.60455798
557.657	99.64333097
557.853	99.64784758
558.048	99.72591492
558.243	99.76966112
558.438	99.73699291
558.633	99.72472637
558.829	99.81759618
559.024	99.92182738
559.219	99.86676682
559.414	99.82050697
559.609	99.81430194
559.804	99.8860081
559.999	99.88191266
560.194	99.9275639
560.39	99.94651524
560.585	99.95822212
560.78	99.82151178
560.975	99.95257542
561.17	100.03609556
561.365	100.02840285
561.56	100.09402998
561.755	100.04897011
561.95	100.13753066
562.145	100.13839566
562.34	100.24273147
562.535	100.20014271
562.729	100.27185996
562.924	100.25131771
563.119	100.22616277
563.314	100.2454793
563.509	100.35323412
563.704	100.43908208
563.899	100.37301791
564.093	100.50776345
564.288	100.44429162
564.483	100.44639173
564.678	100.58170976
564.873	100.80506144
565.067	100.77760656
565.262	100.64162203
565.457	100.82744808
565.652	100.76505964
565.846	100.76753431
566.041	100.81245125
566.236	100.65461061
566.43	100.74256314
566.625	100.71432257
566.82	100.83692236
567.014	100.90165849
567.209	100.88785324
567.404	100.83000257
567.598	100.67739464
567.793	100.65749454
567.987	100.6904771
568.182	100.64164256
568.376	100.72502712
568.571	100.55809066
568.765	100.48706607
568.96	100.36151988
569.154	100.36531907
569.349	100.36958481
569.543	100.37767306
569.738	100.30433951
569.932	100.32041623
570.127	100.22348375
570.321	100.27345955
570.515	100.22526977
570.71	100.22622737
570.904	100.07179123
571.098	99.96971488
571.293	99.98972501
571.487	99.95309823
571.681	100.02335857
571.876	99.93918513
572.07	100.00149011
572.264	99.99793854
572.458	99.97053519
572.653	100.02718715
572.847	99.98801876
573.041	99.9333826
573.235	99.86453177
573.43	99.82844619
573.624	99.78535887
573.818	99.83948697
574.012	99.75678983
574.206	99.77731417
574.4	99.76639926
574.594	99.7698293
574.788	99.75280151
574.983	99.77177024
575.177	99.76919842
575.371	99.82821316
575.565	99.78432514
575.759	99.71887829
575.953	99.77092376
576.147	99.77540911
576.341	99.77129787
576.535	99.74860826
576.729	99.68338669
576.923	99.68505817
577.117	99.7344714
577.31	99.73831751
577.504	99.74542455
577.698	99.72271583
577.892	99.67613709
578.086	99.67685287
578.28	99.67742081
578.474	99.66439743
578.668	99.62826059
578.861	99.68209611
579.055	99.69703307
579.249	99.71465926
579.443	99.64407667
579.636	99.67446059
579.83	99.68877089
580.024	99.68961686
580.218	99.59909724
580.411	99.55221306
580.605	99.53900569
580.799	99.57072178
580.992	99.57990331
581.186	99.58948547
581.38	99.59252575
581.573	99.56747762
581.767	99.57148904
581.961	99.58289923
582.154	99.60292381
582.348	99.59489838
582.541	99.61372138
582.735	99.62096031
582.928	99.57686106
583.122	99.53709057
583.315	99.5437241
583.509	99.5917184
583.702	99.59014629
583.896	99.57604349
584.089	99.57200152
584.283	99.60567611
584.476	99.6601714
584.67	99.67870006
584.863	99.68672897
585.056	99.64371876
585.25	99.58654332
585.443	99.6156651
585.636	99.63665847
585.83	99.64961074
586.023	99.66501325
586.216	99.61369353
586.41	99.56409163
586.603	99.57214142
586.796	99.56892523
586.989	99.5854408
587.183	99.63342641
587.376	99.61764768
587.569	99.60283331
587.762	99.58892071
587.955	99.6168534
588.149	99.63008345
588.342	99.65103103
588.535	99.60075645
588.728	99.57966702
588.921	99.59610045
589.114	99.61088088
589.307	99.60373198
589.5	99.5765772
589.693	99.58105453
589.886	99.5758539
590.08	99.56109886
590.273	99.63545332
590.466	99.66057533
590.659	99.61981996
590.852	99.61631349
591.044	99.62281419
591.237	99.5840016
591.43	99.60826642
591.623	99.60602319
591.816	99.6304691
592.009	99.6755622
592.202	99.63682747
592.395	99.63092433
592.588	99.66702121
592.781	99.71418069
592.973	99.72167306
593.166	99.71194092
593.359	99.78783447
593.552	99.78627916
593.745	99.77622847
593.937	99.77801639
594.13	99.74334828
594.323	99.77048951
594.515	99.79072357
594.708	99.76645361
594.901	99.79904287
595.094	99.79927638
595.286	99.82341227
595.479	99.81125129
595.672	99.83889277
595.864	99.80056952
596.057	99.70717458
596.249	99.7172952
596.442	99.67545187
596.635	99.67439328
596.827	99.65321956
597.02	99.57462539
597.212	99.62829926
597.405	99.59855983
597.597	99.58111114
597.79	99.5912437
597.982	99.56386996
598.175	99.6039614
598.367	99.6133038
598.559	99.62558402
598.752	99.63397775
598.944	99.6018667
599.137	99.60774586
599.329	99.59073032
599.521	99.62849174
599.714	99.50877633
599.906	99.49707804
600.098	99.4731102
600.291	99.51576836
600.483	99.57992915
600.675	99.57388452
600.868	99.56459612
601.06	99.56413604
601.252	99.54187745
601.444	99.60540816
601.637	99.5884482
601.829	99.56871107
602.021	99.56197071
602.213	99.54520203
602.405	99.50367308
602.597	99.49618443
602.789	99.50513142
602.982	99.51226865
603.174	99.51024683
603.366	99.5441241
603.558	99.47736235
603.75	99.49467971
603.942	99.46874269
604.134	99.49882734
604.326	99.48100594
604.518	99.47756456
604.71	99.48581759
604.902	99.47282487
605.094	99.45933615
605.286	99.45203411
605.478	99.44756334
605.67	99.44684881
605.862	99.43349549
606.054	99.43233299
606.246	99.42763761
606.437	99.42954986
606.629	99.4432059
606.821	99.41703621
607.013	99.42078586
607.205	99.41009875
607.397	99.38678956
607.588	99.4104929
607.78	99.42230342
607.972	99.43921055
608.164	99.423099
608.355	99.42362756
608.547	99.41112846
608.739	99.39965833
608.93	99.39359008
609.122	99.40758079
609.314	99.42165568
609.505	99.37035437
609.697	99.36182745
609.889	99.38187393
610.08	99.37952242
610.272	99.3920026
610.463	99.37401799
610.655	99.34841091
610.847	99.35503286
611.038	99.3421025
611.23	99.33016048
611.421	99.32208573
611.613	99.33190496
611.804	99.31625464
611.996	99.31319232
612.187	99.31481351
612.379	99.31316139
612.57	99.31973938
612.761	99.30684388
612.953	99.30618575
613.144	99.3018528
613.336	99.29178006
613.527	99.32968825
613.718	99.33252542
613.91	99.31757806
614.101	99.31779499
614.292	99.30898741
614.483	99.32354921
614.675	99.32556206
614.866	99.34219448
615.057	99.34705972
615.248	99.34912608
615.44	99.3514003
615.631	99.35415544
615.822	99.35629914
616.013	99.36539987
616.204	99.36562311
616.396	99.34792581
616.587	99.33463868
616.778	99.33937411
616.969	99.3518159
617.16	99.30984353
617.351	99.29415968
617.542	99.28595348
617.733	99.29881874
617.924	99.28107772
618.115	99.29519862
618.306	99.30806183
618.497	99.33289542
618.688	99.32478251
618.879	99.33729355
619.07	99.34234608
619.261	99.3594452
619.452	99.37280073
619.643	99.33578701
619.834	99.33717307
620.025	99.29393191
620.216	99.30104828
620.407	99.31284905
620.597	99.32382026
620.788	99.3457013
620.979	99.34288012
621.17	99.40232796
621.361	99.45371744
621.551	99.43202934
621.742	99.43793535
621.933	99.5109604
622.124	99.50457597
622.314	99.49128501
622.505	99.43519264
622.696	99.45413851
622.886	99.44983562
623.077	99.42706248
623.268	99.42165202
623.458	99.40694736
623.649	99.38778212
623.84	99.37530835
624.03	99.41997807
624.221	99.41596183
624.411	99.42286647
624.602	99.42403045
624.792	99.40990984
624.983	99.39931478
625.173	99.47612728
625.364	99.43114949
625.554	99.46252423
625.745	99.48574672
625.935	99.43800907
626.126	99.43187783
626.316	99.42847782
626.507	99.44826454
626.697	99.48173997
626.887	99.43251178
627.078	99.41751911
627.268	99.46662962
627.458	99.50484375
627.649	99.55415729
627.839	99.56185725
628.029	99.5749722
628.22	99.6151646
628.41	99.60289969
628.6	99.62751758
628.79	99.63099312
628.981	99.63751245
629.171	99.54488623
629.361	99.57144629
629.551	99.60314025
629.741	99.57789233
629.932	99.6208787
630.122	99.64552449
630.312	99.69230351
630.502	99.73319705
630.692	99.70440348
630.882	99.71476673
631.072	99.75729768
631.262	99.70374856
631.452	99.70699818
631.642	99.65611469
631.832	99.6831354
632.022	99.70959146
632.212	99.73397358
632.402	99.76770106
632.592	99.76592497
632.782	99.72131452
632.972	99.689539
633.162	99.72822609
633.352	99.75074982
633.542	99.72789905
633.732	99.7161649
633.922	99.61285614
634.111	99.59477121
634.301	99.51634445
634.491	99.41439313
634.681	99.4138572
634.871	99.5197337
635.06	99.53455572
635.25	99.57037642
635.44	99.5923484
635.63	99.7040232
635.819	99.68833038
636.009	99.69725335
636.199	99.56689415
636.388	99.53568329
636.578	99.55002282
636.768	99.6540191
636.957	99.70666112
637.147	99.63154587
637.337	99.62824818
637.526	99.61014232
637.716	99.54820253
637.905	99.66072392
638.095	99.6286576
638.284	99.64154747
638.474	99.71363097
638.663	99.78121957
638.853	99.76832562
639.042	99.75724284
639.232	99.71966187
639.421	99.59469377
639.611	99.56364801
639.8	99.52560553
639.99	99.47515204
640.179	99.60261934
640.368	99.7273962
640.558	99.74242135
640.747	99.80885359
640.936	99.94413892
641.126	99.97641937
641.315	99.85931591
641.504	99.89358509
641.694	99.88399421
641.883	99.87412901
642.072	99.88214907
642.261	99.7985846
642.451	99.83019267
642.64	99.83986267
642.829	99.67306509
643.018	99.80052084
643.207	99.80510421
643.397	99.8227098
643.586	99.79664045
643.775	99.79974288
643.964	99.67382569
644.153	99.55491166
644.342	99.39776255
644.531	99.31801791
644.72	99.20547397
644.909	99.23240174
645.098	99.25604877
645.287	99.19059635
645.476	99.19535375
645.665	99.29120742
645.854	99.29345166
646.043	99.19599756
646.232	99.2672
646.421	99.24715123
646.61	99.21098497
646.799	99.31138912
646.988	99.27691095
647.177	99.31345869
647.365	99.33436534
647.554	99.4039074
647.743	99.45170151
647.932	99.50217776
648.121	99.5028732
648.309	99.5920814
648.498	99.66914145
648.687	99.79151754
648.876	99.73903306
649.064	99.81115521
649.253	99.83585722
649.442	99.85885979
649.63	99.76506633
649.819	99.89379368
650.008	100.0375687
650.196	99.97579713
650.385	99.83407374
650.574	99.79863912
650.762	99.85510657
650.951	99.84125254
651.139	99.72875912
651.328	99.65097612
651.516	99.508023
651.705	99.45595372
651.893	99.52774917
652.082	99.57618736
652.27	99.64413426
652.459	99.59756784
652.647	99.61663856
652.836	99.65087058
653.024	99.55542808
653.213	99.64205889
653.401	99.57738504
653.589	99.57788693
653.778	99.47238242
653.966	99.29068956
654.154	99.22381715
654.343	99.46355531
654.531	99.54994684
654.719	99.51936819
654.908	99.61267201
655.096	99.69329848
655.284	99.71396655
655.472	99.79547561
655.661	99.74093034
655.849	99.80530701
656.037	99.72564755
656.225	99.65887895
656.413	99.54022959
656.601	99.46298581
656.79	99.42335934
656.978	99.56259872
657.166	99.57946143
657.354	99.69254655
657.542	99.76087662
657.73	99.82458544
657.918	99.9258387
658.106	100.00484814
658.294	99.86580892
658.482	99.84700187
658.67	99.79070586
658.858	99.65604325
659.046	99.72963432
659.234	99.81712879
659.422	99.79808889
659.61	99.80541274
659.798	99.74332734
659.986	99.73185663
660.173	99.79663306
660.361	99.87751998
660.549	99.9250661
660.737	99.94360797
660.925	99.7780847
661.113	99.72157705
661.3	99.71497443
661.488	99.6334873
661.676	99.5460531
661.864	99.63646433
662.051	99.53561188
662.239	99.51690821
662.427	99.35789457
662.614	99.32198361
662.802	99.20990668
662.99	99.16137013
663.177	99.19252933
663.365	99.22337993
663.553	99.31010599
663.74	99.27472483
663.928	99.40064255
664.115	99.38255114
664.303	99.56160083
664.49	99.44294713
664.678	99.53137348
664.866	99.59566416
665.053	99.68964006
665.24	99.68744543
665.428	99.7677591
665.615	99.72554577
665.803	99.71529434
665.99	99.97625845
666.178	100.06442469
666.365	100.20271594
666.552	100.0396912
666.74	100.17514972
666.927	100.32290466
667.114	100.28989217
667.302	100.44313337
667.489	100.71753279
667.676	100.69992502
667.864	100.46947525
668.051	100.34730986
668.238	100.19091928
668.425	100.4525176
668.613	100.2242952
668.8	100.29187638
668.987	100.23942202
669.174	100.12937345
669.361	100.17373599
669.548	100.01134184
669.736	99.86331575
669.923	99.80173732
670.11	99.83144235
670.297	99.79674746
670.484	100.04540531
670.671	99.92305706
670.858	99.69733827
671.045	99.7417948
671.232	99.63705717
671.419	99.14939405
671.606	99.26567194
671.793	99.65719921
671.98	99.60590108
672.167	99.44406228
672.354	99.16790929
672.541	99.42308785
672.728	99.37871649
672.915	99.32406477
673.101	99.17554302
673.288	99.03960502
673.475	99.26655197
673.662	99.25060207
673.849	99.24757128
674.035	99.16358792
674.222	99.31459508
674.409	99.30156451
674.596	99.55910956
674.783	99.65983836
674.969	99.75498618
675.156	99.79942878
675.343	100.17102247
675.529	99.90876809
675.716	99.87475197
675.903	100.22781744
676.089	100.42184996
676.276	100.45908462
676.462	100.18142534
676.649	100.14273755
676.836	100.05761104
677.022	100.19602892
677.209	100.28941554
677.395	100.25448735
677.582	100.50884651
677.768	100.47602409
677.955	100.37003262
678.141	100.20851247
678.328	100.173774
678.514	99.98040999
678.701	99.87563607
678.887	99.76177934
679.073	99.5651599
679.26	99.4438779
679.446	99.59050001
679.632	99.56352288
679.819	99.58310856
680.005	99.55615531
680.191	99.4728086
680.378	99.64628673
680.564	99.52877202
680.75	99.79453107
680.936	99.8046559
681.123	99.71397252
681.309	99.82204965
681.495	99.69186946
681.681	99.54653779
681.867	99.66549058
682.054	99.91266816
682.24	100.04289276
682.426	99.99609722
682.612	100.0052936
682.798	99.82911581
682.984	99.85651273
683.17	99.709264
683.356	99.66113646
683.542	99.43654339
683.728	99.29102029
683.914	99.40133671
684.1	99.46979805
684.286	99.3781845
684.472	99.42832106
684.658	99.285932
684.844	99.09465289
685.03	99.1506703
685.216	99.07163254
685.402	99.20580312
685.588	99.46434464
685.774	99.39510128
685.96	99.12048697
686.145	98.88536708
686.331	99.0295639
686.517	99.02437305
686.703	99.15804373
686.889	99.17435282
687.074	99.20599024
687.26	99.18267392
687.446	99.35913856
687.631	99.38229536
687.817	99.1121415
688.003	99.18038604
688.189	99.15891747
688.374	99.38530978
688.56	99.2824573
688.745	99.74079861
688.931	99.77073152
689.117	99.76640342
689.302	99.74932577
689.488	99.72872404
689.673	99.81586184
689.859	99.77270422
690.044	99.87160026
690.23	99.8158317
690.415	100.00544483
690.601	99.92994003
690.786	99.74826397
690.972	99.88838451
691.157	100.0544664
691.343	100.15559701
691.528	99.98838942
691.713	100.11739229
691.899	99.99319302
692.084	99.89955574
692.269	99.55967756
692.455	99.58154437
692.64	99.16549183
692.825	99.20042065
693.011	99.19894193
693.196	98.850992
693.381	98.64486795
693.566	98.68243664
693.752	98.81228753
693.937	99.10681828
694.122	99.30625012
694.307	98.77404517
694.492	98.77501306
694.678	99.35063034
694.863	99.1784401
695.048	99.21587962
695.233	98.87928468
695.418	99.03850766
695.603	99.09748952
695.788	99.22396584
695.973	99.39003653
696.158	99.42383852
696.343	99.75862084
696.528	100.0169888
696.713	99.90011104
696.898	99.95258058
697.083	99.99303801
697.268	99.99960334
697.453	99.87534281
697.638	99.78545289
697.823	99.66033069
698.008	99.36132543
698.192	99.6379526
698.377	99.87279331
698.562	99.67104763
698.747	99.48838008
698.932	99.32879548
699.117	99.40002397
699.301	99.5852414
699.486	99.61507436
699.671	99.968299
699.856	100.09624256
700.04	99.97859095
700.225	99.8982028
700.41	99.59313501
700.594	99.62852241
700.779	99.78432861
700.964	99.86273613
701.148	99.78700654
701.333	99.69735869
701.517	99.7113069
701.702	99.5432373
701.887	99.58995585
702.071	99.49266185
702.256	99.29272422
702.44	99.25998774
702.625	99.39285949
702.809	99.29485434
702.994	99.3422739
703.178	99.25223821
703.362	99.19949232
703.547	98.95311881
703.731	98.95473618
703.916	99.04230588
704.1	98.97745466
704.284	99.06241279
704.469	99.06063582
704.653	98.98479616
704.837	98.93143085
705.022	98.936063
705.206	98.97782591
705.39	99.02145864
705.575	99.04848107
705.759	99.02069039
705.943	99.09281275
706.127	99.17392386
706.311	99.19182933
706.496	99.13518085
706.68	99.24278336
706.864	99.15750013
707.048	99.13131237
707.232	99.13612394
707.416	99.21535528
707.6	99.37207905
707.785	99.29276178
707.969	99.28575414
708.153	99.28553193
708.337	99.18901092
708.521	99.09130225
708.705	99.19937827
708.889	99.25125807
709.073	99.26484372
709.257	99.43184987
709.441	99.41427464
709.624	99.45553296
709.808	99.44701627
709.992	99.42715033
710.176	99.48860614
710.36	99.45146934
710.544	99.44597729
710.728	99.48519158
710.912	99.53807689
711.095	99.56897565
711.279	99.50846005
711.463	99.24835097
711.647	99.46765093
711.83	99.57034639
712.014	99.64797536
712.198	99.8248284
712.382	99.91112844
712.565	99.76742217
712.749	99.67354095
712.933	99.52419533
713.116	99.0777859
713.3	99.32661222
713.483	99.31717078
713.667	99.34800187
713.851	99.53191823
714.034	99.40014569
714.218	99.67327176
714.401	99.55579323
714.585	99.59695719
714.768	99.66894184
714.952	99.59439055
715.135	99.79004272
715.319	99.60961622
715.502	99.17140303
715.686	98.9193998
715.869	98.69119619
716.052	98.59617695
716.236	98.38446062
716.419	98.36474085
716.602	98.89191401
716.786	98.92982865
716.969	99.62396706
717.152	99.19800868
717.336	98.86039338
717.519	98.54147614
717.702	98.02433468
717.885	98.32885001
718.069	98.31753421
718.252	98.38469839
718.435	98.29247131
718.618	97.91885324
718.801	98.7094636
718.985	98.39916862
719.168	98.55611342
719.351	98.36762995
719.534	99.08073492
719.717	99.8069423
719.9	99.4868756
720.083	100.28534079
720.266	99.54118354
720.449	98.75043127
720.632	99.31010747
720.815	98.95253313
720.998	98.80131607
721.181	99.78686037
721.364	98.94744167
721.547	99.65716316
721.73	98.14114399
721.913	96.26183392
722.096	96.15024508
722.279	96.65412349
722.461	96.9324698
722.644	95.57323729
722.827	96.62095712
723.01	96.48711078
723.193	97.28450284
723.376	96.46600049
723.558	96.06079463
723.741	95.32426639
723.924	94.2143166
724.107	96.04746829
724.289	93.69070118
724.472	94.34694149
724.655	93.95782413
724.837	95.47515641
725.02	93.81609065
725.203	93.86677728
725.385	92.95975662
725.568	92.52317121
725.75	93.89401579
725.933	93.33535006
726.115	92.85129241
726.298	92.29852124
726.481	92.73194581
726.663	90.8870889
726.845	90.22099126
727.028	91.78311027
727.21	91.22717555
727.393	92.12658977
727.575	93.46641381
727.758	93.52710739
727.94	93.00777821
728.122	96.11918032
728.305	96.68439754
728.487	96.48831191
728.67	96.1157077
728.852	96.90791854
729.034	96.9075695
729.216	97.20670391
729.399	99.32495093
729.581	98.27295434
729.763	98.45245929
729.945	98.02158655
730.128	97.45645268
730.31	97.71094475
730.492	98.00827563
730.674	99.71204018
730.856	98.05515736
731.039	98.37656038
731.221	97.83130483
731.403	96.17819658
731.585	96.89212347
731.767	97.17436251
731.949	95.53351392
732.131	94.62724367
732.313	94.93377417
732.495	93.27997736
732.677	93.68862251
732.859	93.68132418
733.041	93.82129088
733.223	92.94374637
733.405	92.68410172
733.587	92.72220998
733.769	93.4402477
733.951	94.05562197
734.132	93.91435593
734.314	93.349806
734.496	91.9795851
734.678	92.4715556
734.86	92.45106821
735.042	92.00765688
735.223	92.77288649
735.405	92.84983728
735.587	91.74567246
735.769	92.55922839
735.95	92.93441077
736.132	91.53549369
736.314	93.30220027
736.495	93.75435836
736.677	93.93232828
736.859	93.91202926
737.04	93.54452144
737.222	93.85576807
737.403	93.80671155
737.585	92.40426223
737.767	92.15823054
737.948	91.84867855
738.13	92.34093155
738.311	93.41790133
738.493	93.64891255
738.674	94.68687238
738.856	94.68533098
739.037	94.51311078
739.219	93.0453057
739.4	94.98546392
739.581	94.83214616
739.763	94.81643228
739.944	95.65160208
740.125	95.18702632
740.307	94.48530009
740.488	94.85692
740.669	94.67156263
740.851	94.67995716
741.032	95.46244641
741.213	94.96986594
741.395	95.73744991
741.576	96.49843939
741.757	95.8757033
741.938	95.69728096
742.119	94.1230659
742.301	92.64233924
742.482	92.41681051
742.663	93.04349322
742.844	93.15838146
743.025	94.91976239
743.206	93.78759649
743.387	93.47900553
743.568	92.59412793
743.749	92.704591
743.93	92.81583344
744.111	93.4746995
744.292	93.08650608
744.473	94.24483189
744.654	94.96325639
744.835	94.85949024
745.016	96.40030541
745.197	96.37854142
745.378	95.15078853
745.559	96.01000766
745.74	96.19925299
745.921	97.83077363
746.102	98.04072668
746.282	98.57829199
746.463	97.42886796
746.644	97.75823656
746.825	98.42955098
747.006	99.40172834
747.186	99.9088386
747.367	100.73845521
747.548	100.27039858
747.728	98.63345869
747.909	98.5908457
748.09	98.27044361
748.27	96.3448882
748.451	95.46839546
748.632	94.28887491
748.812	93.46234195
748.993	94.03896482
749.173	95.74983584
749.354	95.72367678
749.535	95.24646697
749.715	94.99355247
749.896	96.73628351
750.076	95.07801513
750.257	95.42889264
750.437	95.35925784
750.618	95.19987584
750.798	95.48820957
750.978	95.48926484
751.159	95.7433277
751.339	95.72292468
751.52	97.15763406
751.7	96.47882757
751.88	98.71033246
752.061	99.4156553
752.241	100.09282646
752.421	101.74954158
752.601	101.37557138
752.782	100.21604615
752.962	99.47797648
753.142	100.13236685
753.322	100.43194291
753.503	99.12406633
753.683	97.84013214
753.863	98.44232831
754.043	98.64359312
754.223	99.41820168
754.403	99.56873882
754.583	98.47919288
754.764	97.45490593
754.944	97.7728527
755.124	98.76101504
755.304	97.85054015
755.484	98.43138143
755.664	96.51890809
755.844	97.54216208
756.024	98.39326702
756.204	97.29487089
756.384	97.15155986
756.564	97.86247373
756.743	98.45061804
756.923	96.94977969
757.103	96.7039036
757.283	98.23582128
757.463	100.90671902
757.643	99.99738706
757.823	100.51818979
758.002	98.82545464
758.182	97.99813904
758.362	97.57653409
758.542	96.42386244
758.721	96.28705487
758.901	94.87145045
759.081	94.54417076
759.261	93.53837704
759.44	95.14916123
759.62	94.18060575
759.8	92.99127067
759.979	93.91154668
760.159	92.29434321
760.338	93.21505769
760.518	92.60332555
760.698	93.62148671
760.877	94.02081959
761.057	93.55343674
761.236	90.38456056
761.416	92.341836
761.595	91.68184578
761.775	92.0256805
761.954	89.85778115
762.133	90.12993718
762.313	94.08925716
762.492	95.00799535
762.672	95.6085764
762.851	96.85794365
763.03	97.76628809
763.21	96.69920701
763.389	97.62674988
763.568	98.85109132
763.748	98.87951229
763.927	101.39467285
764.106	98.96166801
764.286	99.27312223
764.465	99.46003413
764.644	99.15817946
764.823	99.27166178
765.002	100.78964257
765.182	99.37456567
765.361	99.6659212
765.54	99.39197183
765.719	100.5006703
765.898	99.78887335
766.077	97.91049643
766.256	96.63886096
766.435	96.75996881
766.614	97.36451674
766.793	97.19661135
766.972	98.2146254
767.151	97.1218616
767.33	95.38673521
767.509	95.52713158
767.688	96.56493699
767.867	98.51505234
768.046	98.29824515
768.225	97.64418299
768.404	97.48001806
768.583	96.32413264
768.762	94.50165644
768.94	95.37629747
769.119	95.86342409
769.298	96.35556923
769.477	96.09188314
769.656	97.09701473
769.834	99.06260549
770.013	98.08871444
770.192	98.40814129
770.37	98.82419533
770.549	99.92377047
770.728	97.66574264
770.906	96.38560616
771.085	96.38521933
771.264	95.59355207
771.442	93.54523615
771.621	92.53794156
771.799	91.97382019
771.978	92.28543623
772.157	92.68008166
772.335	93.11157605
772.514	94.35961869
772.692	93.05521606
772.871	92.4486259
773.049	94.27298143
773.228	95.343144
773.406	93.17423729
773.584	90.56553275
773.763	90.40269744
773.941	90.22996363
774.119	89.62075301
774.298	88.65024896
774.476	90.1785957
774.655	91.93921105
774.833	93.37380985
775.011	94.46075553
775.189	95.23508993
775.368	95.52454422
775.546	95.2394937
775.724	93.90544023
775.902	94.59944142
776.08	96.42760892
776.259	95.32165482
776.437	95.53355072
776.615	96.25902297
776.793	93.02003314
776.971	92.58694231
777.149	95.47244715
777.327	95.94854886
777.505	95.86431077
777.683	96.27822647
777.861	94.7865154
778.04	95.013641
778.218	94.80430304
778.395	92.95016895
778.573	90.85011839
778.751	89.82426396
778.929	90.58621472
779.107	91.49082344
779.285	90.31488703
779.463	91.90730365
779.641	90.0530111
779.819	90.70751468
779.997	90.39744896
780.174	90.11510934
780.352	89.79740708
780.53	89.53018812
780.708	89.31765323
780.886	87.76855709
781.063	88.26258038
781.241	89.5413672
781.419	90.31230704
781.596	91.57053533
781.774	92.01573871
781.952	93.37812243
782.129	95.2707829
782.307	94.62052488
782.485	93.53437071
782.662	92.489033
782.84	91.49010073
783.017	95.63361916
783.195	96.51231527
783.372	97.10949852
783.55	96.53115424
783.727	97.55594939
783.905	99.07906464
784.082	102.60310286
784.26	102.51305629
784.437	103.82306477
784.615	106.56747752
784.792	108.815175
784.969	109.92358787
785.147	108.33207166
785.324	107.91697924
785.501	106.43620426
785.679	107.53127648
785.856	106.55563967
786.033	109.72242692
786.211	112.40802843
786.388	112.48820696
786.565	112.39694502
786.742	106.76510472
786.92	105.91877806
787.097	106.00370537
787.274	105.44669033
787.451	104.41885242
787.628	107.05377012
787.805	106.83791794
787.982	107.2918268
788.16	109.918344
788.337	107.37084052
788.514	103.14292968
788.691	105.28195968
788.868	103.43633864
789.045	103.08055628
789.222	106.71508319
789.399	102.75575689
789.576	101.78287006
789.753	100.57767369
789.93	99.15275995
790.106	94.95419809
790.283	97.50981659
790.46	97.95366989
790.637	95.96754485
790.814	97.31294763
790.991	94.14198496
791.168	95.93800385
791.344	92.37604044
791.521	87.62274852
791.698	88.24199057
791.875	84.20430743
792.051	85.09502805
792.228	87.28314327
792.405	84.36428835
792.581	85.25888003
792.758	83.536873
792.935	81.96755086
793.111	81.58800267
793.288	81.04943856
793.465	81.63904335
793.641	80.76781488
793.818	85.21220512
793.994	84.62244292
794.171	87.04935442
794.347	88.93604818
794.524	88.63217813
794.7	90.56458276
794.877	89.06923378
795.053	90.03383063
795.23	92.34828496
795.406	94.1285504
795.583	97.34395011
795.759	93.72362002
795.935	94.22347949
796.112	93.71356001
796.288	96.63696465
796.464	101.05615513
796.641	98.62403654
796.817	98.01831807
796.993	101.42085028
797.169	98.81558497
797.346	100.28802169
797.522	99.66628371
797.698	95.05543587
797.874	93.3986828
798.051	92.64786623
798.227	91.15632655
798.403	89.85097247
798.579	92.20295185
798.755	92.8441132
798.931	90.86370964
799.107	93.78074672
799.283	93.93276713
799.459	97.59106004
799.635	99.63334927
799.811	100.87256387
799.987	96.83482212
800.163	94.06913404
800.339	94.7336097
800.515	97.40915757
800.691	99.54542904
800.867	99.20009077
801.043	96.62649276
801.219	97.20361039
801.395	101.295628
801.571	106.74455656
801.746	109.86153939
801.922	112.1309936
802.098	111.46876882
802.274	113.23767517
802.45	111.78475901
802.625	108.59714929
802.801	106.47391578
802.977	100.48488694
803.152	100.10109446
803.328	98.01751959
803.504	97.63340681
803.679	100.89557212
803.855	98.23174537
804.031	99.71904394
804.206	97.80591045
804.382	96.0241378
804.557	97.52431814
804.733	99.58113976
804.909	99.93477343
805.084	99.21354657
805.26	95.6874608
805.435	93.76269434
805.61	92.31062483
805.786	92.91388373
805.961	89.69416199
806.137	90.4330473
806.312	92.58414375
806.488	92.17234748
806.663	95.57912968
806.838	95.25014175
807.014	93.4610997
807.189	93.74732944
807.364	91.14328604
807.54	93.88698878
807.715	94.65793813
807.89	96.6779661
808.065	95.5412681
808.241	96.02263627
808.416	93.98395002
808.591	92.73228037
808.766	93.84357477
808.941	96.32401763
809.116	100.16965127
809.291	99.07116777
809.467	100.64072301
809.642	103.81182982
809.817	101.62483579
809.992	103.37884219
810.167	105.55175818
810.342	105.40892051
810.517	101.10076207
810.692	104.72042927
810.867	102.21126435
811.042	100.55576139
811.217	99.21259843
811.392	95.16468115
811.567	98.78831076
811.741	99.52488512
811.916	98.28526274
812.091	99.11461295
812.266	98.59342489
812.441	95.60900454
812.616	93.42093581
812.79	92.58206255
812.965	90.2918507
813.14	87.34503702
813.315	89.64208711
813.489	87.95585826
813.664	81.69283494
813.839	78.05238525
814.013	76.99210636
814.188	79.50411727
814.363	76.19132449
814.537	77.10104285
814.712	78.31222021
814.887	77.61455394
815.061	75.07760088
815.236	66.05560648
815.41	60.50005365
815.585	59.56046289
815.759	56.76560684
815.934	54.82388974
816.108	59.29607465
816.283	63.444986
816.457	61.0522064
816.631	66.09989373
816.806	68.45881758
816.98	61.84504715
817.155	64.35199042
817.329	68.52196779
817.503	73.34813405
817.678	75.12297227
817.852	71.02710271
818.026	75.03754881
818.201	76.64255277
818.375	77.5192289
818.549	82.74884205
818.723	82.75926098
818.897	84.78240953
819.072	87.44365744
819.246	88.72829657
819.42	88.80458756
819.594	89.56971909
819.768	90.45869992
819.942	84.42020002
820.116	83.84696271
820.29	85.82950238
820.465	82.74645186
820.639	84.05534135
820.813	84.79976399
820.987	85.27338823
821.161	77.69055829
821.335	75.8221901
821.509	78.27960078
821.682	78.75867105
821.856	82.02043626
822.03	82.09898459
822.204	86.00323056
822.378	87.41412281
822.552	86.49154372
822.726	85.24137931
822.9	84.16315451
823.073	86.36463121
823.247	87.74105725
823.421	88.27576004
823.595	90.88759146
823.768	95.78989899
823.942	96.58141302
824.116	94.54202725
824.289	93.98897838
824.463	90.81129538
824.637	94.31113508
824.81	94.59581787
824.984	98.54935053
825.158	99.20404532
825.331	99.31292942
825.505	93.33333333
825.678	94.26093735
825.852	93.27096843
826.025	94.79557892
826.199	96.8487624
826.372	100.12547051
826.546	102.1312873
826.719	105.50939537
826.893	100.08228518
827.066	97.32988803
827.24	96.8094804
827.413	88.32145172
827.586	80.06980803
827.76	94.73415785
827.933	93.63848899
828.106	89.98645153
828.28	85.55832443
828.453	89.35146192
828.626	84.87102579
828.799	83.76534789
828.973	79.05520031
829.146	80.59626707
829.319	77.96187866
829.492	80.1417573
829.665	75.87534593
829.839	78.14474782
830.012	75.07480882
830.185	71.33628018
830.358	62.99378736
830.531	66.97016892
830.704	69.78443551
830.877	71.58916105
831.05	79.67113414
831.223	86.44363832
831.396	80.01440403
831.569	75.70127505
831.742	77.01533848
831.915	78.29123501
832.088	80.89446842
832.261	80.3630146
832.434	85.62000254
832.607	89.46431018
832.779	99.8708937
832.952	105.47533953
833.125	93.58851675
833.298	101.18320114
833.471	100.99377236
833.643	101.20577713
833.816	100.44969806
833.989	106.06590451
834.162	110.45113845
834.334	104.01836969
834.507	99.93663667
834.68	90.94371058
834.852	92.3586522
835.025	89.08307119
835.198	103.78685087
835.37	110.13286807
835.543	115.49443353
835.715	111.99737044
835.888	116.18155459
836.061	116.21138017
836.233	118.9551712
836.406	107.93832096
836.578	102.32931727
836.751	98.11277594
836.923	98.6938674
837.095	105.600618
837.268	110.62026454
837.44	110.01843884
837.613	110.07423118
837.785	110.05126982
837.957	113.75583722
838.13	115.50549298
838.302	113.99469792
838.474	111.43062545
838.647	116.16479401
838.819	107.92544325
838.991	103.64518365
839.163	95.99126501
839.336	93.69198712
839.508	83.38652149
839.68	82.26249314
839.852	79.65776148
840.024	88.89247138
840.196	100.68482242
840.368	103.25553739
840.541	94.10589411
840.713	80.38486209
840.885	84.84765678
841.057	85.31848431
841.229	88.87967951
841.401	88.62259324
841.573	93.38365373
841.745	100.42092604
841.917	104.79970234
842.089	102.05791744
842.261	105.85811768
842.432	107.42659758
842.604	109.13152017
842.776	108.48368522
842.948	114.90737287
843.12	124.55702848
843.292	130.70091543
843.464	131.43627782
843.635	125.57884642
843.807	117.30374024
843.979	127.22869684
844.151	129.30062471
844.322	128.3756736
844.494	114.73669507
844.666	116.61700014
844.837	112.69276394
845.009	107.6669867
845.181	106.24004633
845.352	98.1990786
845.524	106.91097966
845.695	96.55839668
845.867	92.40146282
846.039	99.48113869
846.21	104.70260528
846.382	102.83354692
846.553	98.27509951
846.725	88.10053672
846.896	89.06850404
847.068	84.10431136
847.239	86.98926231
847.41	82.8381495
847.582	81.52216556
847.753	89.9004645
847.925	94.06491919
848.096	97.80267126
848.267	96.63548792
848.439	97.06106289
848.61	94.331001
848.781	85.19442406
848.952	90.09638218
849.124	89.50522648
849.295	101.50694952
849.466	103.91759014
849.637	98.05749806
849.808	92.69107615
849.98	93.38034941
850.151	91.33731247
850.322	108.26821734
850.493	104.89736544
850.664	108.65535933
850.835	121.85934682
851.006	109.81691369
851.177	115.56875764
851.348	107.58500436
851.519	118.08638789
851.69	117.90744467
851.861	129.68091511
852.032	124.66270912
852.203	136.52718819
852.374	150.03214056
852.545	158.49346656
852.716	154.16771594
852.887	148.85152735
853.057	145.31557109
853.228	140.67141404
853.399	149.9461555
853.57	152.57251747
853.741	156.72490002
853.911	152.83737718
854.082	165.20951302
854.253	133.02325581
854.424	133.22446017
854.594	156.44299977
854.765	157.29374822
854.936	174.5810939
855.106	148.52980847
855.277	151.13277889
855.447	140.12091898
855.618	131.69214822
855.789	128.3996794
855.959	125.36387497
856.13	119.8103891
856.3	96.17846751
856.471	99.82195846
856.641	98.58948525
856.812	97.67095211
856.982	92.30473997
857.153	84.95402074
857.323	83.99633364
857.493	69.08110191
857.664	71.33683596
857.834	81.50603836
858.004	61.47729651
858.175	59.61820852
858.345	69.81689309
858.515	69.85382631
858.686	57.8338591
858.856	58.86924422
859.026	59.93111366
859.196	71.53284672
859.367	80.28751906
859.537	71.21826328
859.707	88.17511301
859.877	105.85401108
860.047	103.1484867
860.217	96.33144734
860.387	90.57729426
860.558	90.40838679
860.728	85.70575056
860.898	87.9470616
861.068	88.76916701
861.238	79.79546348
861.408	82.87932623
861.578	82.72473775
861.748	86.92317209
861.918	83.82569327
862.088	79.37768951
862.257	85.27370856
862.427	86.06139495
862.597	86.89443041
862.767	86.63876004
862.937	80.83131132
863.107	90.77490775
863.277	82.98270735
863.446	84.94126023
863.616	82.46643202
863.786	83.43841304
863.956	78.77961479
864.125	78.39586028
864.295	80.94779426
864.465	77.6678594
864.634	93.31946972
864.804	84.65746288
864.974	102.86576169
865.143	110.91819699
865.313	90.14173228
865.482	89.56097561
865.652	95.90962213
865.822	69.43192065
865.991	92.38443632
866.161	74.59170013
866.33	71.27988748
866.5	85.13477449
866.669	71.24753591
866.838	65.29395828
867.008	64.4051369
867.177	64.46611653
867.347	67.02412869
867.516	77.03211517
867.685	83.74973308
867.855	91.15821023
868.024	77.99515558
868.193	59.76171565
868.363	66.81635926
868.532	63.61662082
868.701	68.86373406
868.87	68.42021867
869.04	67.30493059
869.209	72.45499924
869.378	80.34401876
869.547	67.15819843
869.716	67.93299948
869.885	60.53147851
870.055	62.7359491
870.224	67.14136126
870.393	75.42163256
870.562	68.99410866
870.731	80.68156672
870.9	79.88360815
871.069	81.01761252
871.238	63.12039896
871.407	58.78154474
871.576	84.77625365
871.745	103.33966875
871.914	91.37244492
872.083	69.01679978
872.251	70.56157139
872.42	84.10551984
872.589	89.62515115
872.758	79.74294496
872.927	92.64373588
873.096	107.34744707
873.264	124.64662041
873.433	130.85590985
873.602	121.85704436
873.771	107.47603834
873.939	95.15140256
874.108	104.92114763
874.277	95.04213208
874.445	104.62194833
874.614	115.48217277
874.783	120.05306213
874.951	121.08348494
875.12	119.24629879
875.288	124.04793609
875.457	136.06826387
875.625	151.94188321
875.794	147.63920547
875.962	166.46187206
876.131	164.5915797
876.299	150.94001791
876.468	138.07476017
876.636	114.24287856
876.805	101.36667636
876.973	117.33908223
877.141	127.36947123
877.31	140.56902002
877.478	201.19118523
877.647	220.07272727
877.815	216.55172414
877.983	155.28330781
878.151	137.34460467
878.32	166.34451393
878.488	148.38066766
878.656	149.22787194
878.824	126.42094385
878.992	166.48234794
879.161	141.58782394
879.329	142.61662575
879.497	143.72955289
879.665	160.08492569
879.833	152.73211906
880.001	229.51082598
880.169	375.46468401
880.337	198.49529781
880.505	219.04761905
880.673	135.93073593
880.841	120.12703454
881.009	112.0441989
881.177	104.15711948
881.345	112.50387837
881.513	125.9646069
881.681	125.10681076
881.849	121.74133131
882.017	112.10366694
882.185	104.0950297
882.352	127.94490758
882.52	104.07540893
882.688	122.16905901
882.856	117.39255841
883.024	132.04373423
883.191	118.20879417
883.359	141.89944134
883.527	145.26428763
883.694	134.77047933
883.862	156.58009921
884.03	148.15003828
884.197	172.1677074
884.365	181.86190313
884.533	184.93017213
884.7	196.14192215
884.868	182.05212801
885.035	189.75059788
885.203	155.27802557
885.37	157.21518987
885.538	174.38745508
885.705	166.93800877
885.873	160.95444685
886.04	161.49144254
886.208	158.52142623
886.375	188.08888889
886.542	166.36700159
886.71	169.16996047
886.877	156.59612787
